Item name: Decay

Real time: 304.82
Live time: 188.86

Comment: 


Chan	Data
1	0
2	0
3	0
4	0
5	0
6	0
7	0
8	0
9	0
10	0
11	0
12	0
13	0
14	0
15	0
16	0
17	0
18	0
19	0
20	0
21	0
22	0
23	0
24	0
25	0
26	0
27	0
28	0
29	0
30	0
31	0
32	0
33	0
34	0
35	0
36	0
37	0
38	0
39	0
40	0
41	0
42	0
43	0
44	0
45	0
46	0
47	0
48	0
49	0
50	0
51	0
52	0
53	0
54	0
55	0
56	0
57	0
58	0
59	0
60	0
61	0
62	0
63	0
64	0
65	0
66	0
67	0
68	0
69	0
70	0
71	0
72	0
73	0
74	0
75	0
76	0
77	0
78	0
79	0
80	0
81	0
82	0
83	0
84	0
85	0
86	0
87	0
88	0
89	0
90	0
91	0
92	0
93	0
94	0
95	0
96	0
97	0
98	0
99	0
100	0
101	0
102	0
103	3
104	2
105	6
106	2
107	4
108	10
109	2
110	6
111	8
112	8
113	4
114	5
115	9
116	7
117	2
118	3
119	6
120	6
121	3
122	6
123	5
124	8
125	9
126	6
127	6
128	2
129	5
130	6
131	7
132	5
133	11
134	7
135	2
136	4
137	6
138	4
139	6
140	6
141	5
142	10
143	9
144	7
145	4
146	8
147	6
148	3
149	5
150	11
151	7
152	7
153	6
154	10
155	7
156	6
157	4
158	5
159	7
160	6
161	10
162	8
163	1
164	4
165	6
166	6
167	9
168	9
169	1
170	5
171	8
172	5
173	11
174	9
175	4
176	8
177	1
178	8
179	5
180	3
181	6
182	7
183	9
184	4
185	13
186	7
187	5
188	5
189	4
190	7
191	11
192	6
193	3
194	6
195	7
196	3
197	10
198	2
199	5
200	2
201	10
202	10
203	5
204	7
205	4
206	8
207	8
208	9
209	8
210	10
211	5
212	7
213	7
214	6
215	7
216	6
217	6
218	7
219	4
220	4
221	2
222	8
223	7
224	3
225	6
226	2
227	4
228	9
229	5
230	4
231	8
232	7
233	2
234	8
235	9
236	7
237	7
238	7
239	4
240	5
241	11
242	8
243	4
244	7
245	7
246	8
247	4
248	5
249	6
250	5
251	3
252	7
253	2
254	6
255	5
256	7
257	6
258	9
259	11
260	7
261	6
262	5
263	5
264	9
265	4
266	5
267	4
268	8
269	8
270	8
271	6
272	7
273	13
274	6
275	9
276	4
277	8
278	10
279	7
280	13
281	8
282	5
283	5
284	3
285	4
286	8
287	6
288	6
289	6
290	7
291	3
292	4
293	4
294	6
295	4
296	7
297	5
298	9
299	6
300	6
301	3
302	7
303	6
304	10
305	5
306	8
307	4
308	7
309	9
310	7
311	11
312	4
313	5
314	6
315	8
316	9
317	6
318	4
319	3
320	5
321	2
322	8
323	4
324	7
325	8
326	1
327	8
328	5
329	9
330	7
331	3
332	5
333	7
334	8
335	5
336	8
337	9
338	2
339	6
340	3
341	4
342	4
343	7
344	3
345	5
346	7
347	9
348	7
349	6
350	6
351	5
352	10
353	6
354	6
355	7
356	6
357	7
358	5
359	8
360	10
361	2
362	8
363	5
364	7
365	8
366	6
367	7
368	9
369	7
370	9
371	4
372	8
373	6
374	10
375	7
376	5
377	5
378	10
379	5
380	11
381	9
382	8
383	8
384	6
385	6
386	8
387	5
388	5
389	6
390	8
391	9
392	3
393	8
394	8
395	6
396	4
397	10
398	9
399	9
400	6
401	7
402	11
403	13
404	2
405	5
406	6
407	8
408	8
409	8
410	5
411	9
412	9
413	3
414	6
415	7
416	5
417	12
418	5
419	7
420	7
421	6
422	5
423	8
424	2
425	9
426	8
427	5
428	8
429	6
430	5
431	11
432	5
433	7
434	12
435	8
436	1
437	7
438	7
439	4
440	7
441	3
442	10
443	5
444	4
445	8
446	7
447	7
448	9
449	5
450	5
451	6
452	7
453	6
454	8
455	6
456	6
457	5
458	4
459	3
460	5
461	3
462	5
463	10
464	7
465	6
466	4
467	5
468	6
469	8
470	11
471	4
472	7
473	6
474	8
475	11
476	4
477	8
478	9
479	8
480	11
481	17
482	11
483	10
484	17
485	20
486	25
487	18
488	32
489	35
490	47
491	36
492	37
493	71
494	72
495	101
496	95
497	123
498	152
499	180
500	236
501	267
502	368
503	492
504	560
505	796
506	962
507	1271
508	1546
509	2057
510	2875
511	3524
512	4564
513	5718
514	7040
515	8892
516	10881
517	12819
518	15460
519	18163
520	21126
521	23605
522	27137
523	30020
524	33370
525	35945
526	38418
527	40943
528	43048
529	44446
530	45839
531	47313
532	48071
533	49077
534	49436
535	49652
536	50003
537	49706
538	49588
539	49192
540	48999
541	48266
542	48100
543	47664
544	47024
545	46682
546	46150
547	45812
548	45286
549	45119
550	44834
551	44054
552	43541
553	43179
554	42707
555	42096
556	41987
557	41300
558	40662
559	40319
560	40000
561	39705
562	39514
563	38786
564	38488
565	38313
566	38052
567	37383
568	36858
569	36859
570	36046
571	35623
572	35891
573	35208
574	35054
575	34970
576	34157
577	33676
578	33557
579	33446
580	33113
581	32735
582	32561
583	32001
584	31974
585	31633
586	31289
587	31350
588	31521
589	30540
590	30224
591	30214
592	30104
593	29700
594	29561
595	29433
596	28936
597	28863
598	28738
599	28504
600	27995
601	27858
602	28053
603	27594
604	27531
605	27060
606	27398
607	26778
608	26606
609	26549
610	26387
611	26206
612	26273
613	26255
614	25888
615	25310
616	25599
617	25359
618	25258
619	25182
620	25188
621	25159
622	24634
623	24476
624	24695
625	24194
626	24077
627	24008
628	23900
629	23889
630	23518
631	23679
632	23401
633	23298
634	22812
635	23070
636	22771
637	22717
638	22367
639	22336
640	22212
641	21866
642	22066
643	21847
644	21687
645	21536
646	21476
647	21368
648	21078
649	20852
650	20943
651	20916
652	20563
653	20427
654	20357
655	20330
656	20391
657	20146
658	20071
659	19927
660	19711
661	19364
662	19682
663	19391
664	19484
665	19415
666	18791
667	19016
668	19058
669	18856
670	18800
671	18736
672	18833
673	18735
674	18462
675	18489
676	18444
677	18092
678	18294
679	17890
680	18363
681	17844
682	17577
683	17625
684	17745
685	17487
686	17310
687	17333
688	17353
689	17488
690	17100
691	16951
692	17037
693	16959
694	16955
695	16847
696	16696
697	16756
698	16326
699	16467
700	16578
701	16454
702	16326
703	16151
704	16109
705	16133
706	15939
707	15734
708	15872
709	15680
710	15773
711	15549
712	15607
713	15579
714	15418
715	15469
716	15360
717	15230
718	15194
719	15094
720	15198
721	14934
722	14897
723	15059
724	14858
725	14755
726	14705
727	14711
728	14651
729	14647
730	14529
731	14358
732	14324
733	14223
734	14309
735	14057
736	14152
737	14139
738	14059
739	13869
740	13495
741	13918
742	13892
743	13623
744	13437
745	13452
746	13549
747	13306
748	13545
749	13411
750	13255
751	13405
752	13263
753	12964
754	13118
755	13150
756	12891
757	12991
758	12828
759	12811
760	12946
761	12617
762	12706
763	12640
764	12398
765	12339
766	12411
767	12313
768	12233
769	11930
770	12173
771	12237
772	12151
773	12190
774	12017
775	11828
776	11760
777	11842
778	11822
779	11767
780	11722
781	11746
782	11541
783	11580
784	11337
785	11356
786	11426
787	11559
788	11318
789	11307
790	11377
791	11284
792	11204
793	11332
794	11026
795	11023
796	11094
797	11127
798	10796
799	10788
800	10779
801	10803
802	10827
803	10784
804	10715
805	10403
806	10598
807	10614
808	10565
809	10491
810	10452
811	10280
812	10346
813	10369
814	10364
815	10241
816	10400
817	10342
818	10024
819	10190
820	10140
821	10141
822	9901
823	10035
824	9924
825	9841
826	9976
827	9897
828	9937
829	9721
830	9655
831	9706
832	9760
833	9562
834	9585
835	9551
836	9533
837	9474
838	9440
839	9612
840	9348
841	9305
842	9395
843	9309
844	9272
845	9203
846	9267
847	9159
848	9052
849	9013
850	8930
851	9030
852	8981
853	9019
854	8773
855	8777
856	8993
857	8674
858	8661
859	8553
860	8693
861	8582
862	8534
863	8664
864	8548
865	8455
866	8489
867	8336
868	8414
869	8279
870	8252
871	8364
872	8391
873	8202
874	8311
875	8220
876	8087
877	8153
878	8115
879	8004
880	7958
881	7895
882	8047
883	8022
884	8044
885	7827
886	7964
887	7827
888	7798
889	7701
890	7726
891	7561
892	7733
893	7531
894	7578
895	7645
896	7495
897	7439
898	7393
899	7466
900	7459
901	7440
902	7578
903	7455
904	7290
905	7343
906	7324
907	7296
908	7149
909	7293
910	7171
911	7200
912	7204
913	7292
914	7213
915	7064
916	6966
917	7040
918	6889
919	7010
920	7028
921	7031
922	6951
923	6910
924	6742
925	6807
926	6798
927	6815
928	6824
929	6613
930	6765
931	6553
932	6842
933	6626
934	6695
935	6656
936	6698
937	6497
938	6659
939	6622
940	6388
941	6419
942	6292
943	6331
944	6468
945	6278
946	6386
947	6334
948	6295
949	6168
950	6306
951	6281
952	6081
953	6220
954	6082
955	6181
956	6084
957	6145
958	6076
959	6010
960	5918
961	5990
962	5992
963	5969
964	6022
965	5792
966	5619
967	5710
968	5815
969	5758
970	5859
971	5794
972	5683
973	5607
974	5588
975	5632
976	5693
977	5598
978	5588
979	5625
980	5460
981	5508
982	5484
983	5435
984	5387
985	5401
986	5377
987	5386
988	5424
989	5388
990	5309
991	5278
992	5366
993	5310
994	5239
995	5077
996	5128
997	5191
998	5275
999	5151
1000	5106
1001	5209
1002	5215
1003	5121
1004	5081
1005	5070
1006	5053
1007	4917
1008	4955
1009	4935
1010	4956
1011	5012
1012	4874
1013	4893
1014	4802
1015	4791
1016	4881
1017	4770
1018	4746
1019	4837
1020	4766
1021	4749
1022	4701
1023	4501
1024	4793
1025	4656
1026	4727
1027	4456
1028	4594
1029	4719
1030	4640
1031	4410
1032	4462
1033	4544
1034	4442
1035	4471
1036	4495
1037	4463
1038	4470
1039	4356
1040	4443
1041	4480
1042	4445
1043	4378
1044	4309
1045	4247
1046	4387
1047	4314
1048	4259
1049	4383
1050	4324
1051	4220
1052	4206
1053	4248
1054	4197
1055	4247
1056	4182
1057	4152
1058	4181
1059	4157
1060	4245
1061	4171
1062	4251
1063	4036
1064	4090
1065	4076
1066	4094
1067	4025
1068	3974
1069	3955
1070	3980
1071	4013
1072	3886
1073	3983
1074	4037
1075	4019
1076	3921
1077	3957
1078	3931
1079	3872
1080	3868
1081	3827
1082	3737
1083	3782
1084	3731
1085	3848
1086	3837
1087	3792
1088	3604
1089	3777
1090	3653
1091	3750
1092	3522
1093	3724
1094	3663
1095	3584
1096	3718
1097	3570
1098	3599
1099	3594
1100	3607
1101	3657
1102	3482
1103	3609
1104	3470
1105	3500
1106	3587
1107	3500
1108	3537
1109	3535
1110	3456
1111	3396
1112	3469
1113	3452
1114	3302
1115	3362
1116	3319
1117	3342
1118	3331
1119	3358
1120	3350
1121	3352
1122	3374
1123	3281
1124	3285
1125	3230
1126	3229
1127	3255
1128	3172
1129	3275
1130	3131
1131	3068
1132	3218
1133	3114
1134	3254
1135	3212
1136	3215
1137	3009
1138	3130
1139	3073
1140	3110
1141	3093
1142	3025
1143	3015
1144	3036
1145	3033
1146	3065
1147	3013
1148	2980
1149	2972
1150	2979
1151	2990
1152	2969
1153	3083
1154	2869
1155	2910
1156	3032
1157	2818
1158	2878
1159	2947
1160	2884
1161	2886
1162	2865
1163	2926
1164	2764
1165	2859
1166	2855
1167	2838
1168	2776
1169	2770
1170	2832
1171	2803
1172	2709
1173	2801
1174	2786
1175	2727
1176	2738
1177	2628
1178	2611
1179	2705
1180	2731
1181	2636
1182	2750
1183	2688
1184	2687
1185	2603
1186	2694
1187	2698
1188	2607
1189	2592
1190	2689
1191	2592
1192	2460
1193	2507
1194	2576
1195	2561
1196	2540
1197	2567
1198	2587
1199	2433
1200	2475
1201	2548
1202	2433
1203	2411
1204	2584
1205	2489
1206	2424
1207	2475
1208	2416
1209	2403
1210	2518
1211	2435
1212	2440
1213	2398
1214	2341
1215	2373
1216	2353
1217	2424
1218	2311
1219	2369
1220	2368
1221	2408
1222	2300
1223	2315
1224	2353
1225	2434
1226	2338
1227	2254
1228	2218
1229	2318
1230	2261
1231	2170
1232	2249
1233	2243
1234	2186
1235	2226
1236	2228
1237	2166
1238	2126
1239	2263
1240	2266
1241	2208
1242	2197
1243	2184
1244	2201
1245	2145
1246	2199
1247	2136
1248	2171
1249	2215
1250	2137
1251	2092
1252	2116
1253	2152
1254	2182
1255	1994
1256	2061
1257	2092
1258	2056
1259	2048
1260	1951
1261	1999
1262	1974
1263	1968
1264	2051
1265	1970
1266	1973
1267	2049
1268	2072
1269	2011
1270	1936
1271	1976
1272	1939
1273	1960
1274	1987
1275	1907
1276	1995
1277	2015
1278	1985
1279	1914
1280	1964
1281	1836
1282	1881
1283	1895
1284	1843
1285	1847
1286	1802
1287	1838
1288	1844
1289	1776
1290	1822
1291	1795
1292	1852
1293	1816
1294	1803
1295	1810
1296	1790
1297	1698
1298	1754
1299	1790
1300	1844
1301	1765
1302	1763
1303	1741
1304	1738
1305	1757
1306	1677
1307	1706
1308	1661
1309	1721
1310	1764
1311	1675
1312	1678
1313	1708
1314	1714
1315	1640
1316	1658
1317	1650
1318	1599
1319	1637
1320	1591
1321	1684
1322	1661
1323	1649
1324	1647
1325	1644
1326	1656
1327	1580
1328	1605
1329	1605
1330	1650
1331	1584
1332	1535
1333	1605
1334	1656
1335	1583
1336	1560
1337	1566
1338	1564
1339	1563
1340	1569
1341	1576
1342	1547
1343	1480
1344	1582
1345	1525
1346	1493
1347	1483
1348	1567
1349	1482
1350	1475
1351	1503
1352	1495
1353	1447
1354	1463
1355	1467
1356	1494
1357	1431
1358	1485
1359	1479
1360	1414
1361	1473
1362	1439
1363	1434
1364	1398
1365	1384
1366	1345
1367	1421
1368	1354
1369	1401
1370	1409
1371	1402
1372	1368
1373	1398
1374	1371
1375	1345
1376	1373
1377	1318
1378	1371
1379	1413
1380	1368
1381	1300
1382	1306
1383	1296
1384	1353
1385	1309
1386	1315
1387	1296
1388	1268
1389	1291
1390	1288
1391	1236
1392	1288
1393	1317
1394	1266
1395	1240
1396	1189
1397	1272
1398	1267
1399	1267
1400	1277
1401	1246
1402	1221
1403	1230
1404	1254
1405	1210
1406	1250
1407	1216
1408	1224
1409	1252
1410	1207
1411	1180
1412	1204
1413	1157
1414	1126
1415	1140
1416	1201
1417	1158
1418	1156
1419	1150
1420	1149
1421	1115
1422	1143
1423	1157
1424	1162
1425	1178
1426	1115
1427	1151
1428	1078
1429	1096
1430	1114
1431	1119
1432	1088
1433	1110
1434	1058
1435	1076
1436	1060
1437	1105
1438	1070
1439	1088
1440	1059
1441	1053
1442	1063
1443	1011
1444	1066
1445	1096
1446	1049
1447	1012
1448	1003
1449	1001
1450	1021
1451	1073
1452	1068
1453	1076
1454	1000
1455	982
1456	1035
1457	981
1458	1010
1459	961
1460	1051
1461	996
1462	1020
1463	980
1464	982
1465	1015
1466	986
1467	1008
1468	1001
1469	948
1470	945
1471	971
1472	961
1473	947
1474	939
1475	991
1476	973
1477	931
1478	910
1479	899
1480	933
1481	882
1482	924
1483	973
1484	894
1485	956
1486	866
1487	993
1488	926
1489	947
1490	927
1491	886
1492	931
1493	953
1494	900
1495	905
1496	896
1497	871
1498	919
1499	883
1500	930
1501	881
1502	909
1503	836
1504	829
1505	854
1506	893
1507	830
1508	831
1509	853
1510	868
1511	806
1512	864
1513	840
1514	801
1515	830
1516	838
1517	894
1518	871
1519	816
1520	832
1521	804
1522	813
1523	834
1524	797
1525	844
1526	805
1527	791
1528	826
1529	784
1530	782
1531	812
1532	755
1533	781
1534	820
1535	775
1536	771
1537	763
1538	753
1539	788
1540	779
1541	809
1542	710
1543	758
1544	727
1545	737
1546	717
1547	763
1548	737
1549	814
1550	725
1551	734
1552	708
1553	732
1554	744
1555	764
1556	755
1557	728
1558	717
1559	708
1560	744
1561	680
1562	662
1563	694
1564	701
1565	754
1566	662
1567	652
1568	687
1569	692
1570	652
1571	741
1572	697
1573	700
1574	672
1575	662
1576	681
1577	659
1578	638
1579	663
1580	655
1581	690
1582	682
1583	670
1584	633
1585	674
1586	657
1587	674
1588	617
1589	621
1590	646
1591	625
1592	646
1593	674
1594	676
1595	649
1596	650
1597	667
1598	646
1599	658
1600	623
1601	647
1602	650
1603	628
1604	617
1605	605
1606	609
1607	588
1608	607
1609	586
1610	656
1611	636
1612	662
1613	619
1614	566
1615	587
1616	569
1617	645
1618	585
1619	582
1620	593
1621	613
1622	558
1623	576
1624	575
1625	580
1626	602
1627	570
1628	612
1629	615
1630	580
1631	579
1632	536
1633	602
1634	557
1635	533
1636	544
1637	560
1638	537
1639	571
1640	593
1641	537
1642	544
1643	541
1644	546
1645	525
1646	526
1647	526
1648	545
1649	527
1650	556
1651	456
1652	516
1653	548
1654	596
1655	526
1656	511
1657	502
1658	507
1659	540
1660	488
1661	455
1662	485
1663	531
1664	529
1665	463
1666	483
1667	466
1668	446
1669	504
1670	516
1671	466
1672	499
1673	497
1674	499
1675	472
1676	497
1677	488
1678	471
1679	507
1680	471
1681	447
1682	482
1683	447
1684	438
1685	481
1686	517
1687	486
1688	444
1689	488
1690	444
1691	457
1692	498
1693	439
1694	493
1695	452
1696	471
1697	449
1698	460
1699	457
1700	449
1701	434
1702	423
1703	395
1704	423
1705	421
1706	462
1707	436
1708	468
1709	398
1710	447
1711	413
1712	446
1713	433
1714	426
1715	420
1716	452
1717	414
1718	415
1719	424
1720	407
1721	434
1722	437
1723	456
1724	392
1725	395
1726	383
1727	418
1728	420
1729	390
1730	422
1731	383
1732	415
1733	445
1734	408
1735	443
1736	391
1737	400
1738	397
1739	405
1740	392
1741	383
1742	379
1743	366
1744	378
1745	380
1746	379
1747	432
1748	381
1749	354
1750	360
1751	380
1752	379
1753	385
1754	372
1755	365
1756	404
1757	377
1758	373
1759	369
1760	352
1761	387
1762	347
1763	347
1764	360
1765	351
1766	374
1767	382
1768	336
1769	328
1770	342
1771	383
1772	346
1773	348
1774	327
1775	335
1776	336
1777	357
1778	377
1779	327
1780	320
1781	326
1782	303
1783	329
1784	352
1785	368
1786	340
1787	355
1788	341
1789	306
1790	308
1791	318
1792	324
1793	321
1794	339
1795	336
1796	326
1797	342
1798	305
1799	357
1800	314
1801	350
1802	284
1803	309
1804	306
1805	313
1806	323
1807	324
1808	304
1809	326
1810	316
1811	311
1812	349
1813	294
1814	298
1815	289
1816	303
1817	317
1818	321
1819	323
1820	312
1821	288
1822	299
1823	323
1824	267
1825	302
1826	297
1827	261
1828	298
1829	278
1830	261
1831	273
1832	274
1833	273
1834	270
1835	298
1836	270
1837	266
1838	275
1839	281
1840	291
1841	272
1842	290
1843	258
1844	263
1845	295
1846	297
1847	245
1848	287
1849	253
1850	296
1851	246
1852	258
1853	241
1854	268
1855	283
1856	264
1857	272
1858	243
1859	236
1860	255
1861	257
1862	275
1863	285
1864	282
1865	280
1866	270
1867	269
1868	246
1869	249
1870	255
1871	239
1872	281
1873	249
1874	234
1875	241
1876	246
1877	274
1878	264
1879	243
1880	224
1881	242
1882	252
1883	240
1884	226
1885	240
1886	239
1887	259
1888	257
1889	245
1890	221
1891	233
1892	214
1893	219
1894	238
1895	222
1896	241
1897	241
1898	220
1899	203
1900	255
1901	262
1902	222
1903	218
1904	244
1905	201
1906	218
1907	244
1908	205
1909	219
1910	230
1911	201
1912	234
1913	232
1914	209
1915	196
1916	213
1917	221
1918	217
1919	218
1920	217
1921	186
1922	216
1923	207
1924	213
1925	214
1926	206
1927	213
1928	220
1929	220
1930	198
1931	208
1932	202
1933	198
1934	214
1935	202
1936	209
1937	203
1938	193
1939	183
1940	191
1941	207
1942	213
1943	190
1944	189
1945	195
1946	185
1947	215
1948	211
1949	198
1950	199
1951	182
1952	201
1953	192
1954	198
1955	219
1956	199
1957	200
1958	201
1959	200
1960	212
1961	164
1962	186
1963	162
1964	183
1965	176
1966	172
1967	197
1968	175
1969	180
1970	189
1971	192
1972	182
1973	156
1974	174
1975	177
1976	211
1977	184
1978	181
1979	176
1980	185
1981	188
1982	155
1983	191
1984	199
1985	171
1986	171
1987	195
1988	172
1989	177
1990	174
1991	176
1992	168
1993	164
1994	174
1995	188
1996	152
1997	198
1998	150
1999	167
2000	179
2001	154
2002	186
2003	158
2004	174
2005	149
2006	167
2007	167
2008	150
2009	151
2010	143
2011	148
2012	178
2013	167
2014	161
2015	167
2016	139
2017	143
2018	170
2019	148
2020	163
2021	143
2022	138
2023	133
2024	155
2025	137
2026	159
2027	161
2028	164
2029	150
2030	159
2031	138
2032	132
2033	133
2034	139
2035	138
2036	153
2037	165
2038	150
2039	157
2040	146
2041	146
2042	140
2043	153
2044	144
2045	136
2046	145
2047	152
2048	139
2049	136
2050	161
2051	140
2052	136
2053	138
2054	132
2055	136
2056	171
2057	132
2058	147
2059	143
2060	154
2061	144
2062	129
2063	137
2064	123
2065	146
2066	115
2067	132
2068	139
2069	147
2070	128
2071	158
2072	150
2073	141
2074	149
2075	125
2076	128
2077	131
2078	132
2079	122
2080	157
2081	117
2082	117
2083	140
2084	151
2085	114
2086	120
2087	125
2088	132
2089	135
2090	135
2091	146
2092	119
2093	132
2094	109
2095	113
2096	121
2097	144
2098	115
2099	128
2100	141
2101	138
2102	109
2103	145
2104	124
2105	99
2106	135
2107	155
2108	115
2109	131
2110	111
2111	130
2112	132
2113	140
2114	113
2115	137
2116	103
2117	126
2118	122
2119	138
2120	124
2121	126
2122	128
2123	123
2124	126
2125	120
2126	117
2127	134
2128	122
2129	123
2130	128
2131	131
2132	108
2133	127
2134	137
2135	127
2136	133
2137	139
2138	132
2139	131
2140	115
2141	132
2142	109
2143	128
2144	154
2145	116
2146	156
2147	142
2148	150
2149	114
2150	129
2151	127
2152	147
2153	130
2154	142
2155	109
2156	149
2157	117
2158	135
2159	143
2160	139
2161	141
2162	128
2163	113
2164	158
2165	136
2166	131
2167	131
2168	109
2169	141
2170	122
2171	132
2172	130
2173	134
2174	143
2175	118
2176	134
2177	127
2178	136
2179	106
2180	127
2181	135
2182	120
2183	115
2184	121
2185	132
2186	151
2187	100
2188	123
2189	130
2190	129
2191	150
2192	147
2193	103
2194	118
2195	120
2196	138
2197	143
2198	104
2199	131
2200	145
2201	130
2202	127
2203	118
2204	134
2205	135
2206	116
2207	132
2208	118
2209	127
2210	121
2211	121
2212	113
2213	116
2214	110
2215	138
2216	102
2217	117
2218	114
2219	128
2220	116
2221	118
2222	135
2223	122
2224	112
2225	128
2226	112
2227	110
2228	111
2229	131
2230	109
2231	134
2232	101
2233	118
2234	113
2235	101
2236	125
2237	96
2238	132
2239	92
2240	114
2241	140
2242	124
2243	130
2244	105
2245	120
2246	121
2247	137
2248	102
2249	126
2250	104
2251	99
2252	136
2253	112
2254	108
2255	112
2256	105
2257	125
2258	112
2259	102
2260	117
2261	128
2262	121
2263	96
2264	117
2265	95
2266	117
2267	107
2268	104
2269	97
2270	103
2271	103
2272	87
2273	113
2274	108
2275	122
2276	112
2277	104
2278	117
2279	99
2280	106
2281	102
2282	111
2283	95
2284	100
2285	95
2286	115
2287	108
2288	109
2289	110
2290	115
2291	85
2292	90
2293	96
2294	117
2295	90
2296	118
2297	98
2298	112
2299	83
2300	103
2301	100
2302	92
2303	112
2304	82
2305	115
2306	105
2307	109
2308	98
2309	101
2310	87
2311	103
2312	103
2313	83
2314	88
2315	111
2316	88
2317	106
2318	84
2319	97
2320	89
2321	94
2322	91
2323	95
2324	104
2325	101
2326	75
2327	85
2328	76
2329	95
2330	83
2331	89
2332	76
2333	96
2334	97
2335	86
2336	97
2337	84
2338	75
2339	87
2340	83
2341	99
2342	91
2343	86
2344	78
2345	87
2346	91
2347	70
2348	93
2349	102
2350	86
2351	81
2352	88
2353	87
2354	84
2355	91
2356	83
2357	86
2358	87
2359	92
2360	63
2361	88
2362	97
2363	89
2364	95
2365	87
2366	82
2367	89
2368	81
2369	80
2370	88
2371	81
2372	98
2373	105
2374	87
2375	88
2376	104
2377	82
2378	82
2379	77
2380	89
2381	86
2382	74
2383	102
2384	72
2385	95
2386	83
2387	82
2388	82
2389	77
2390	83
2391	84
2392	62
2393	75
2394	66
2395	84
2396	78
2397	83
2398	75
2399	80
2400	81
2401	66
2402	62
2403	97
2404	69
2405	70
2406	82
2407	83
2408	77
2409	77
2410	96
2411	79
2412	70
2413	74
2414	83
2415	80
2416	63
2417	64
2418	92
2419	59
2420	73
2421	76
2422	90
2423	75
2424	70
2425	70
2426	85
2427	69
2428	70
2429	69
2430	76
2431	57
2432	76
2433	84
2434	77
2435	70
2436	76
2437	77
2438	66
2439	70
2440	81
2441	80
2442	72
2443	69
2444	69
2445	64
2446	82
2447	59
2448	65
2449	87
2450	71
2451	70
2452	68
2453	75
2454	65
2455	65
2456	71
2457	76
2458	66
2459	59
2460	77
2461	62
2462	59
2463	63
2464	74
2465	66
2466	65
2467	70
2468	69
2469	65
2470	68
2471	78
2472	59
2473	89
2474	67
2475	73
2476	80
2477	66
2478	56
2479	71
2480	61
2481	59
2482	63
2483	66
2484	71
2485	68
2486	66
2487	63
2488	72
2489	68
2490	72
2491	59
2492	69
2493	67
2494	85
2495	52
2496	70
2497	56
2498	82
2499	62
2500	54
2501	58
2502	73
2503	58
2504	55
2505	74
2506	66
2507	57
2508	86
2509	73
2510	54
2511	71
2512	51
2513	58
2514	59
2515	63
2516	74
2517	69
2518	50
2519	59
2520	69
2521	53
2522	60
2523	64
2524	48
2525	55
2526	58
2527	63
2528	56
2529	61
2530	58
2531	58
2532	77
2533	64
2534	67
2535	63
2536	52
2537	63
2538	69
2539	69
2540	62
2541	66
2542	64
2543	58
2544	71
2545	56
2546	74
2547	52
2548	65
2549	55
2550	72
2551	57
2552	61
2553	48
2554	68
2555	52
2556	56
2557	58
2558	65
2559	54
2560	59
2561	54
2562	58
2563	55
2564	57
2565	61
2566	54
2567	62
2568	64
2569	52
2570	51
2571	70
2572	51
2573	58
2574	48
2575	60
2576	56
2577	62
2578	63
2579	62
2580	39
2581	57
2582	49
2583	53
2584	55
2585	62
2586	66
2587	57
2588	52
2589	62
2590	65
2591	59
2592	54
2593	74
2594	50
2595	53
2596	45
2597	58
2598	60
2599	51
2600	43
2601	62
2602	53
2603	37
2604	58
2605	50
2606	52
2607	56
2608	52
2609	57
2610	58
2611	64
2612	63
2613	45
2614	65
2615	60
2616	60
2617	60
2618	63
2619	55
2620	51
2621	49
2622	58
2623	47
2624	52
2625	47
2626	62
2627	67
2628	57
2629	67
2630	39
2631	58
2632	48
2633	60
2634	60
2635	56
2636	59
2637	47
2638	55
2639	41
2640	46
2641	51
2642	63
2643	50
2644	45
2645	46
2646	50
2647	34
2648	33
2649	53
2650	48
2651	49
2652	65
2653	55
2654	45
2655	46
2656	41
2657	37
2658	55
2659	43
2660	58
2661	50
2662	59
2663	34
2664	45
2665	53
2666	51
2667	46
2668	49
2669	47
2670	56
2671	47
2672	51
2673	57
2674	49
2675	54
2676	38
2677	45
2678	65
2679	55
2680	50
2681	58
2682	43
2683	55
2684	50
2685	43
2686	48
2687	41
2688	46
2689	45
2690	45
2691	43
2692	57
2693	37
2694	44
2695	43
2696	45
2697	40
2698	48
2699	43
2700	35
2701	45
2702	43
2703	42
2704	54
2705	48
2706	52
2707	32
2708	58
2709	44
2710	57
2711	40
2712	46
2713	61
2714	41
2715	41
2716	34
2717	52
2718	49
2719	45
2720	46
2721	44
2722	36
2723	46
2724	47
2725	45
2726	37
2727	50
2728	52
2729	36
2730	38
2731	34
2732	48
2733	32
2734	44
2735	45
2736	33
2737	36
2738	38
2739	41
2740	49
2741	30
2742	45
2743	34
2744	43
2745	31
2746	37
2747	42
2748	31
2749	38
2750	30
2751	27
2752	45
2753	52
2754	46
2755	41
2756	45
2757	51
2758	28
2759	46
2760	38
2761	56
2762	36
2763	30
2764	39
2765	42
2766	34
2767	45
2768	39
2769	39
2770	38
2771	53
2772	46
2773	40
2774	28
2775	31
2776	48
2777	28
2778	46
2779	46
2780	47
2781	45
2782	39
2783	39
2784	42
2785	33
2786	44
2787	35
2788	37
2789	38
2790	33
2791	42
2792	42
2793	41
2794	35
2795	37
2796	45
2797	42
2798	40
2799	36
2800	28
2801	34
2802	50
2803	27
2804	35
2805	36
2806	36
2807	32
2808	40
2809	30
2810	30
2811	26
2812	35
2813	38
2814	32
2815	34
2816	34
2817	44
2818	42
2819	41
2820	32
2821	28
2822	32
2823	36
2824	34
2825	28
2826	31
2827	40
2828	39
2829	32
2830	31
2831	31
2832	41
2833	42
2834	28
2835	32
2836	30
2837	37
2838	36
2839	27
2840	41
2841	35
2842	40
2843	25
2844	33
2845	35
2846	32
2847	33
2848	38
2849	27
2850	29
2851	39
2852	24
2853	40
2854	22
2855	36
2856	32
2857	29
2858	29
2859	37
2860	38
2861	34
2862	29
2863	39
2864	30
2865	34
2866	33
2867	30
2868	32
2869	33
2870	33
2871	26
2872	37
2873	31
2874	39
2875	30
2876	29
2877	29
2878	30
2879	32
2880	28
2881	33
2882	37
2883	34
2884	32
2885	31
2886	30
2887	33
2888	33
2889	25
2890	32
2891	32
2892	29
2893	29
2894	21
2895	24
2896	31
2897	24
2898	31
2899	19
2900	29
2901	24
2902	35
2903	23
2904	31
2905	24
2906	19
2907	27
2908	38
2909	40
2910	29
2911	28
2912	29
2913	28
2914	34
2915	40
2916	23
2917	22
2918	22
2919	33
2920	27
2921	24
2922	36
2923	31
2924	26
2925	23
2926	19
2927	24
2928	33
2929	20
2930	40
2931	21
2932	22
2933	27
2934	36
2935	27
2936	26
2937	22
2938	24
2939	40
2940	28
2941	36
2942	24
2943	27
2944	26
2945	23
2946	29
2947	26
2948	25
2949	27
2950	33
2951	20
2952	25
2953	19
2954	27
2955	24
2956	22
2957	24
2958	19
2959	22
2960	28
2961	21
2962	28
2963	22
2964	30
2965	24
2966	26
2967	35
2968	18
2969	30
2970	22
2971	18
2972	24
2973	20
2974	25
2975	35
2976	28
2977	27
2978	28
2979	15
2980	26
2981	31
2982	30
2983	20
2984	25
2985	18
2986	33
2987	25
2988	23
2989	27
2990	26
2991	22
2992	23
2993	22
2994	19
2995	33
2996	18
2997	25
2998	30
2999	36
3000	16
3001	26
3002	19
3003	22
3004	19
3005	27
3006	21
3007	31
3008	17
3009	28
3010	23
3011	18
3012	26
3013	20
3014	17
3015	15
3016	24
3017	26
3018	22
3019	28
3020	21
3021	29
3022	25
3023	27
3024	19
3025	23
3026	24
3027	23
3028	16
3029	27
3030	27
3031	18
3032	20
3033	21
3034	23
3035	27
3036	22
3037	25
3038	20
3039	22
3040	29
3041	14
3042	25
3043	17
3044	24
3045	22
3046	26
3047	17
3048	21
3049	15
3050	16
3051	26
3052	21
3053	26
3054	17
3055	35
3056	20
3057	19
3058	25
3059	31
3060	20
3061	20
3062	26
3063	20
3064	17
3065	18
3066	22
3067	18
3068	21
3069	20
3070	21
3071	24
3072	23
3073	25
3074	10
3075	15
3076	24
3077	19
3078	21
3079	19
3080	26
3081	27
3082	21
3083	20
3084	17
3085	17
3086	23
3087	25
3088	8
3089	23
3090	20
3091	12
3092	22
3093	29
3094	24
3095	19
3096	11
3097	16
3098	23
3099	21
3100	13
3101	21
3102	19
3103	24
3104	24
3105	20
3106	8
3107	14
3108	22
3109	21
3110	13
3111	14
3112	23
3113	25
3114	20
3115	12
3116	8
3117	17
3118	23
3119	15
3120	22
3121	19
3122	12
3123	20
3124	28
3125	18
3126	20
3127	13
3128	20
3129	16
3130	24
3131	21
3132	9
3133	24
3134	13
3135	14
3136	22
3137	19
3138	16
3139	35
3140	23
3141	20
3142	13
3143	26
3144	20
3145	12
3146	22
3147	19
3148	14
3149	17
3150	19
3151	16
3152	18
3153	18
3154	17
3155	26
3156	19
3157	21
3158	22
3159	15
3160	15
3161	22
3162	22
3163	15
3164	18
3165	19
3166	22
3167	18
3168	16
3169	20
3170	16
3171	22
3172	15
3173	10
3174	17
3175	24
3176	14
3177	9
3178	25
3179	20
3180	15
3181	22
3182	16
3183	22
3184	27
3185	11
3186	22
3187	19
3188	14
3189	18
3190	14
3191	19
3192	14
3193	17
3194	14
3195	17
3196	20
3197	16
3198	23
3199	15
3200	19
3201	19
3202	18
3203	15
3204	9
3205	16
3206	15
3207	18
3208	13
3209	10
3210	15
3211	12
3212	11
3213	18
3214	15
3215	13
3216	11
3217	16
3218	15
3219	19
3220	18
3221	15
3222	23
3223	14
3224	16
3225	11
3226	17
3227	10
3228	15
3229	19
3230	21
3231	13
3232	14
3233	13
3234	12
3235	23
3236	21
3237	15
3238	8
3239	25
3240	15
3241	8
3242	20
3243	20
3244	16
3245	16
3246	13
3247	12
3248	15
3249	17
3250	15
3251	19
3252	13
3253	17
3254	20
3255	13
3256	24
3257	20
3258	12
3259	15
3260	17
3261	20
3262	13
3263	14
3264	14
3265	12
3266	10
3267	13
3268	22
3269	18
3270	18
3271	10
3272	14
3273	10
3274	17
3275	18
3276	14
3277	19
3278	19
3279	19
3280	22
3281	11
3282	23
3283	22
3284	6
3285	10
3286	9
3287	23
3288	14
3289	10
3290	11
3291	12
3292	10
3293	10
3294	11
3295	18
3296	15
3297	10
3298	16
3299	15
3300	14
3301	14
3302	19
3303	20
3304	13
3305	14
3306	16
3307	19
3308	20
3309	11
3310	19
3311	12
3312	8
3313	9
3314	14
3315	17
3316	9
3317	14
3318	19
3319	13
3320	11
3321	16
3322	14
3323	15
3324	10
3325	22
3326	15
3327	13
3328	18
3329	7
3330	16
3331	13
3332	14
3333	20
3334	6
3335	7
3336	15
3337	15
3338	12
3339	17
3340	18
3341	8
3342	17
3343	15
3344	10
3345	13
3346	16
3347	15
3348	15
3349	10
3350	13
3351	16
3352	7
3353	8
3354	15
3355	7
3356	8
3357	16
3358	17
3359	8
3360	10
3361	13
3362	4
3363	10
3364	17
3365	10
3366	12
3367	9
3368	15
3369	15
3370	13
3371	13
3372	12
3373	12
3374	14
3375	12
3376	11
3377	9
3378	8
3379	13
3380	13
3381	17
3382	9
3383	10
3384	8
3385	13
3386	14
3387	9
3388	12
3389	13
3390	15
3391	15
3392	11
3393	13
3394	18
3395	13
3396	10
3397	21
3398	16
3399	18
3400	11
3401	16
3402	14
3403	11
3404	10
3405	7
3406	11
3407	7
3408	13
3409	14
3410	9
3411	16
3412	14
3413	11
3414	11
3415	10
3416	14
3417	10
3418	10
3419	10
3420	5
3421	11
3422	7
3423	11
3424	13
3425	14
3426	17
3427	7
3428	12
3429	16
3430	7
3431	8
3432	10
3433	13
3434	12
3435	17
3436	10
3437	12
3438	11
3439	10
3440	14
3441	14
3442	9
3443	8
3444	16
3445	7
3446	12
3447	11
3448	19
3449	11
3450	11
3451	19
3452	11
3453	11
3454	13
3455	5
3456	9
3457	10
3458	18
3459	11
3460	7
3461	14
3462	7
3463	14
3464	15
3465	7
3466	8
3467	16
3468	13
3469	10
3470	8
3471	4
3472	9
3473	12
3474	15
3475	18
3476	10
3477	9
3478	14
3479	14
3480	7
3481	13
3482	7
3483	17
3484	9
3485	8
3486	10
3487	19
3488	16
3489	14
3490	7
3491	11
3492	11
3493	12
3494	4
3495	13
3496	15
3497	7
3498	9
3499	10
3500	14
3501	7
3502	9
3503	10
3504	15
3505	10
3506	13
3507	8
3508	10
3509	15
3510	9
3511	11
3512	12
3513	9
3514	16
3515	11
3516	10
3517	12
3518	5
3519	16
3520	10
3521	11
3522	9
3523	9
3524	18
3525	9
3526	12
3527	13
3528	14
3529	13
3530	8
3531	10
3532	10
3533	11
3534	8
3535	14
3536	10
3537	5
3538	6
3539	12
3540	7
3541	5
3542	8
3543	12
3544	11
3545	13
3546	11
3547	6
3548	11
3549	10
3550	12
3551	8
3552	11
3553	10
3554	12
3555	13
3556	9
3557	10
3558	10
3559	14
3560	5
