Item name: Decay

Real time: 3898.64
Live time: 3872.3

Comment: 


Chan	Data
1	0
2	0
3	0
4	0
5	0
6	0
7	0
8	0
9	0
10	0
11	0
12	0
13	0
14	0
15	0
16	0
17	0
18	0
19	0
20	0
21	0
22	0
23	0
24	0
25	0
26	0
27	0
28	0
29	0
30	0
31	0
32	0
33	0
34	0
35	0
36	0
37	0
38	0
39	0
40	0
41	0
42	0
43	0
44	0
45	0
46	0
47	0
48	0
49	0
50	0
51	0
52	0
53	0
54	0
55	0
56	0
57	0
58	0
59	0
60	0
61	0
62	0
63	0
64	0
65	0
66	0
67	0
68	0
69	0
70	0
71	0
72	0
73	0
74	0
75	0
76	0
77	0
78	0
79	0
80	0
81	0
82	0
83	0
84	0
85	0
86	0
87	0
88	0
89	0
90	0
91	0
92	0
93	0
94	0
95	0
96	0
97	0
98	0
99	0
100	0
101	1
102	1
103	1
104	2
105	2
106	2
107	6
108	3
109	2
110	4
111	4
112	5
113	10
114	3
115	8
116	5
117	6
118	9
119	3
120	6
121	6
122	4
123	7
124	7
125	6
126	7
127	7
128	7
129	4
130	2
131	6
132	6
133	6
134	3
135	7
136	4
137	9
138	6
139	2
140	7
141	1
142	4
143	3
144	6
145	4
146	3
147	3
148	4
149	4
150	3
151	6
152	4
153	10
154	5
155	6
156	4
157	4
158	9
159	6
160	6
161	5
162	7
163	6
164	5
165	7
166	3
167	5
168	4
169	5
170	6
171	3
172	3
173	3
174	3
175	5
176	3
177	2
178	7
179	7
180	3
181	3
182	4
183	7
184	3
185	11
186	6
187	3
188	4
189	9
190	8
191	3
192	3
193	2
194	4
195	8
196	5
197	3
198	3
199	2
200	4
201	3
202	2
203	7
204	2
205	6
206	7
207	3
208	6
209	7
210	1
211	8
212	4
213	2
214	5
215	3
216	2
217	3
218	4
219	4
220	7
221	6
222	6
223	1
224	9
225	2
226	4
227	6
228	4
229	4
230	7
231	6
232	7
233	7
234	6
235	6
236	4
237	4
238	5
239	7
240	6
241	2
242	4
243	2
244	5
245	1
246	6
247	6
248	1
249	7
250	0
251	3
252	3
253	2
254	1
255	9
256	6
257	9
258	4
259	4
260	6
261	2
262	2
263	3
264	7
265	7
266	5
267	8
268	6
269	1
270	6
271	4
272	6
273	3
274	6
275	4
276	4
277	3
278	5
279	5
280	9
281	4
282	11
283	2
284	8
285	8
286	8
287	2
288	6
289	5
290	7
291	10
292	7
293	6
294	4
295	7
296	8
297	5
298	6
299	6
300	3
301	7
302	3
303	3
304	3
305	6
306	7
307	6
308	3
309	9
310	3
311	6
312	6
313	0
314	1
315	4
316	4
317	2
318	4
319	5
320	2
321	4
322	3
323	5
324	6
325	6
326	5
327	2
328	4
329	3
330	4
331	2
332	3
333	6
334	8
335	3
336	11
337	9
338	2
339	5
340	8
341	2
342	4
343	2
344	1
345	4
346	5
347	5
348	4
349	3
350	2
351	2
352	6
353	6
354	5
355	5
356	4
357	4
358	2
359	4
360	5
361	8
362	2
363	8
364	5
365	3
366	3
367	2
368	6
369	6
370	4
371	3
372	5
373	6
374	4
375	6
376	6
377	10
378	0
379	7
380	3
381	4
382	5
383	6
384	4
385	7
386	2
387	9
388	5
389	5
390	5
391	2
392	3
393	5
394	4
395	3
396	3
397	2
398	2
399	9
400	4
401	5
402	6
403	7
404	9
405	8
406	4
407	4
408	9
409	7
410	4
411	4
412	6
413	3
414	5
415	4
416	5
417	7
418	4
419	7
420	2
421	5
422	12
423	8
424	5
425	3
426	8
427	4
428	6
429	7
430	6
431	6
432	4
433	1
434	6
435	7
436	4
437	6
438	4
439	4
440	3
441	6
442	2
443	3
444	5
445	6
446	3
447	5
448	4
449	6
450	4
451	8
452	7
453	4
454	4
455	1
456	5
457	6
458	7
459	3
460	3
461	1
462	5
463	6
464	9
465	3
466	5
467	4
468	3
469	3
470	5
471	2
472	2
473	5
474	4
475	4
476	3
477	5
478	3
479	10
480	3
481	3
482	4
483	5
484	6
485	5
486	7
487	0
488	8
489	4
490	5
491	2
492	7
493	9
494	1
495	3
496	6
497	9
498	7
499	8
500	12
501	5
502	7
503	9
504	5
505	10
506	11
507	13
508	14
509	9
510	11
511	14
512	19
513	25
514	24
515	45
516	43
517	51
518	85
519	93
520	133
521	171
522	197
523	244
524	318
525	401
526	524
527	668
528	794
529	947
530	1236
531	1491
532	1739
533	2125
534	2393
535	2844
536	3121
537	3756
538	4097
539	4483
540	5191
541	5679
542	6045
543	6542
544	6954
545	7382
546	7692
547	7964
548	8484
549	8631
550	8944
551	9079
552	9605
553	9615
554	9894
555	9922
556	10200
557	10293
558	10519
559	10395
560	10516
561	10439
562	10565
563	10613
564	10493
565	10511
566	10523
567	10673
568	10501
569	10582
570	10422
571	10453
572	10419
573	10479
574	10304
575	10237
576	10253
577	10212
578	10368
579	9993
580	9917
581	10061
582	9952
583	9892
584	9996
585	9640
586	9748
587	9700
588	9671
589	9630
590	9522
591	9505
592	9414
593	9399
594	9233
595	9243
596	9098
597	9192
598	9103
599	9012
600	9051
601	8836
602	8827
603	8914
604	8840
605	8791
606	8505
607	8771
608	8786
609	8574
610	8595
611	8452
612	8479
613	8279
614	8354
615	8278
616	8231
617	7994
618	8056
619	8031
620	7911
621	8038
622	8040
623	7876
624	7928
625	7832
626	7644
627	7542
628	7569
629	7606
630	7522
631	7376
632	7568
633	7434
634	7383
635	7443
636	7296
637	7342
638	7229
639	7144
640	7216
641	7102
642	7007
643	6985
644	7067
645	6922
646	6791
647	6756
648	6749
649	6816
650	6840
651	6637
652	6566
653	6524
654	6665
655	6602
656	6489
657	6504
658	6499
659	6422
660	6475
661	6399
662	6372
663	6144
664	6196
665	6300
666	6265
667	6238
668	6040
669	5980
670	6005
671	6062
672	5977
673	5879
674	5664
675	5752
676	5768
677	5694
678	5649
679	5643
680	5614
681	5619
682	5574
683	5563
684	5413
685	5388
686	5522
687	5389
688	5388
689	5278
690	5215
691	5267
692	5282
693	5172
694	5106
695	5072
696	5049
697	5115
698	4957
699	4946
700	4906
701	5007
702	4765
703	4848
704	4699
705	4826
706	4793
707	4713
708	4808
709	4540
710	4627
711	4743
712	4627
713	4626
714	4663
715	4616
716	4474
717	4514
718	4565
719	4421
720	4309
721	4378
722	4421
723	4371
724	4357
725	4299
726	4156
727	4092
728	4195
729	4297
730	4251
731	4109
732	4159
733	4133
734	4091
735	4011
736	3999
737	3995
738	3982
739	3973
740	3847
741	3924
742	3915
743	3993
744	3725
745	3842
746	3859
747	3816
748	3656
749	3646
750	3789
751	3570
752	3657
753	3691
754	3642
755	3541
756	3641
757	3597
758	3562
759	3590
760	3431
761	3427
762	3416
763	3448
764	3395
765	3510
766	3354
767	3303
768	3464
769	3310
770	3337
771	3267
772	3271
773	3230
774	3178
775	3178
776	3236
777	3182
778	3244
779	3226
780	3113
781	3189
782	3066
783	3094
784	3120
785	3054
786	3014
787	3072
788	2985
789	2901
790	2918
791	2892
792	2888
793	2909
794	2942
795	2858
796	2809
797	2902
798	2834
799	2735
800	2827
801	2823
802	2673
803	2626
804	2832
805	2643
806	2724
807	2769
808	2655
809	2667
810	2571
811	2640
812	2599
813	2641
814	2574
815	2582
816	2556
817	2608
818	2594
819	2552
820	2555
821	2530
822	2500
823	2581
824	2542
825	2428
826	2462
827	2463
828	2416
829	2469
830	2338
831	2343
832	2307
833	2367
834	2347
835	2221
836	2325
837	2234
838	2266
839	2225
840	2265
841	2285
842	2277
843	2243
844	2156
845	2170
846	2126
847	2189
848	2156
849	2084
850	2174
851	2135
852	2141
853	2098
854	1991
855	2106
856	2174
857	1975
858	2110
859	1994
860	2045
861	1982
862	1968
863	1996
864	2015
865	2055
866	2008
867	1956
868	1920
869	1966
870	1904
871	1955
872	1812
873	1932
874	1856
875	1909
876	1863
877	1868
878	1838
879	1798
880	1905
881	1789
882	1726
883	1732
884	1790
885	1734
886	1747
887	1636
888	1739
889	1763
890	1723
891	1719
892	1678
893	1707
894	1748
895	1710
896	1709
897	1710
898	1706
899	1574
900	1637
901	1636
902	1612
903	1607
904	1643
905	1569
906	1601
907	1528
908	1566
909	1556
910	1575
911	1615
912	1578
913	1496
914	1496
915	1585
916	1591
917	1517
918	1525
919	1525
920	1475
921	1482
922	1510
923	1462
924	1470
925	1513
926	1543
927	1365
928	1397
929	1448
930	1400
931	1396
932	1436
933	1433
934	1418
935	1457
936	1369
937	1348
938	1370
939	1318
940	1374
941	1335
942	1403
943	1267
944	1303
945	1325
946	1378
947	1325
948	1338
949	1280
950	1275
951	1275
952	1275
953	1237
954	1255
955	1257
956	1173
957	1229
958	1234
959	1211
960	1173
961	1196
962	1194
963	1215
964	1170
965	1210
966	1139
967	1152
968	1161
969	1149
970	1122
971	1126
972	1135
973	1071
974	1159
975	1127
976	1088
977	1113
978	1117
979	1079
980	1083
981	1074
982	1124
983	1099
984	1086
985	1067
986	1067
987	1084
988	1005
989	1044
990	1037
991	1043
992	1049
993	1092
994	1002
995	1066
996	1061
997	1016
998	1003
999	972
1000	1008
1001	1023
1002	954
1003	957
1004	981
1005	998
1006	1026
1007	944
1008	969
1009	969
1010	943
1011	946
1012	894
1013	940
1014	936
1015	922
1016	972
1017	925
1018	887
1019	935
1020	879
1021	870
1022	906
1023	858
1024	849
1025	886
1026	901
1027	898
1028	869
1029	887
1030	863
1031	831
1032	832
1033	784
1034	842
1035	853
1036	830
1037	873
1038	916
1039	827
1040	832
1041	816
1042	814
1043	773
1044	853
1045	826
1046	793
1047	750
1048	756
1049	787
1050	750
1051	722
1052	763
1053	755
1054	805
1055	739
1056	749
1057	742
1058	728
1059	719
1060	748
1061	716
1062	746
1063	723
1064	747
1065	772
1066	736
1067	682
1068	762
1069	756
1070	698
1071	725
1072	690
1073	703
1074	710
1075	682
1076	660
1077	705
1078	710
1079	717
1080	669
1081	710
1082	679
1083	664
1084	680
1085	672
1086	718
1087	666
1088	620
1089	662
1090	674
1091	613
1092	677
1093	634
1094	657
1095	689
1096	610
1097	601
1098	646
1099	623
1100	626
1101	600
1102	595
1103	617
1104	655
1105	575
1106	611
1107	621
1108	612
1109	591
1110	617
1111	601
1112	607
1113	637
1114	552
1115	564
1116	611
1117	593
1118	620
1119	631
1120	549
1121	538
1122	570
1123	575
1124	539
1125	557
1126	594
1127	529
1128	516
1129	564
1130	582
1131	603
1132	545
1133	556
1134	569
1135	554
1136	550
1137	491
1138	548
1139	513
1140	532
1141	518
1142	522
1143	561
1144	540
1145	489
1146	531
1147	518
1148	532
1149	535
1150	511
1151	526
1152	531
1153	493
1154	497
1155	509
1156	481
1157	508
1158	494
1159	495
1160	452
1161	459
1162	488
1163	484
1164	454
1165	477
1166	465
1167	448
1168	493
1169	469
1170	484
1171	467
1172	515
1173	454
1174	429
1175	473
1176	432
1177	451
1178	466
1179	492
1180	449
1181	460
1182	457
1183	432
1184	430
1185	454
1186	434
1187	417
1188	452
1189	434
1190	460
1191	425
1192	423
1193	447
1194	425
1195	402
1196	421
1197	406
1198	442
1199	412
1200	401
1201	395
1202	421
1203	422
1204	450
1205	393
1206	385
1207	440
1208	400
1209	369
1210	406
1211	405
1212	411
1213	397
1214	373
1215	403
1216	412
1217	398
1218	400
1219	368
1220	392
1221	398
1222	355
1223	414
1224	364
1225	376
1226	349
1227	387
1228	379
1229	373
1230	359
1231	368
1232	374
1233	351
1234	391
1235	326
1236	350
1237	368
1238	360
1239	334
1240	334
1241	340
1242	332
1243	362
1244	369
1245	315
1246	334
1247	341
1248	348
1249	375
1250	345
1251	360
1252	341
1253	363
1254	289
1255	341
1256	332
1257	325
1258	310
1259	338
1260	295
1261	292
1262	297
1263	313
1264	306
1265	295
1266	370
1267	306
1268	311
1269	298
1270	283
1271	304
1272	336
1273	315
1274	301
1275	308
1276	322
1277	283
1278	303
1279	300
1280	289
1281	302
1282	281
1283	293
1284	279
1285	292
1286	275
1287	270
1288	305
1289	291
1290	288
1291	289
1292	288
1293	287
1294	267
1295	291
1296	284
1297	236
1298	278
1299	254
1300	285
1301	284
1302	290
1303	286
1304	258
1305	258
1306	249
1307	268
1308	263
1309	251
1310	278
1311	277
1312	292
1313	250
1314	261
1315	238
1316	230
1317	261
1318	285
1319	234
1320	268
1321	263
1322	264
1323	258
1324	232
1325	242
1326	245
1327	231
1328	267
1329	237
1330	272
1331	249
1332	253
1333	219
1334	247
1335	239
1336	233
1337	212
1338	270
1339	244
1340	223
1341	241
1342	247
1343	197
1344	238
1345	227
1346	219
1347	234
1348	229
1349	224
1350	220
1351	215
1352	211
1353	203
1354	234
1355	205
1356	244
1357	249
1358	195
1359	239
1360	219
1361	215
1362	191
1363	213
1364	219
1365	237
1366	208
1367	236
1368	198
1369	240
1370	205
1371	223
1372	208
1373	231
1374	206
1375	225
1376	202
1377	190
1378	206
1379	210
1380	190
1381	201
1382	204
1383	195
1384	210
1385	204
1386	215
1387	185
1388	210
1389	178
1390	172
1391	200
1392	175
1393	179
1394	204
1395	189
1396	206
1397	192
1398	166
1399	186
1400	171
1401	189
1402	177
1403	168
1404	154
1405	172
1406	169
1407	201
1408	145
1409	150
1410	162
1411	173
1412	161
1413	161
1414	166
1415	162
1416	155
1417	196
1418	206
1419	165
1420	182
1421	150
1422	184
1423	164
1424	173
1425	167
1426	167
1427	168
1428	172
1429	145
1430	144
1431	179
1432	157
1433	184
1434	167
1435	161
1436	166
1437	180
1438	141
1439	173
1440	146
1441	155
1442	149
1443	160
1444	137
1445	171
1446	172
1447	146
1448	150
1449	149
1450	156
1451	165
1452	169
1453	158
1454	146
1455	146
1456	145
1457	139
1458	146
1459	151
1460	130
1461	143
1462	158
1463	155
1464	139
1465	126
1466	141
1467	151
1468	128
1469	150
1470	148
1471	151
1472	163
1473	147
1474	141
1475	134
1476	140
1477	144
1478	143
1479	162
1480	131
1481	147
1482	133
1483	146
1484	153
1485	129
1486	131
1487	114
1488	140
1489	133
1490	154
1491	126
1492	137
1493	110
1494	134
1495	118
1496	119
1497	122
1498	118
1499	117
1500	116
1501	109
1502	99
1503	132
1504	125
1505	123
1506	126
1507	111
1508	108
1509	125
1510	138
1511	121
1512	117
1513	124
1514	123
1515	127
1516	141
1517	130
1518	127
1519	128
1520	138
1521	125
1522	127
1523	126
1524	119
1525	100
1526	129
1527	116
1528	134
1529	116
1530	116
1531	115
1532	88
1533	105
1534	115
1535	121
1536	126
1537	115
1538	102
1539	98
1540	110
1541	107
1542	110
1543	106
1544	99
1545	105
1546	115
1547	121
1548	83
1549	112
1550	102
1551	106
1552	101
1553	123
1554	116
1555	86
1556	117
1557	91
1558	100
1559	114
1560	101
1561	106
1562	81
1563	104
1564	105
1565	107
1566	112
1567	116
1568	97
1569	96
1570	98
1571	95
1572	100
1573	109
1574	90
1575	89
1576	109
1577	98
1578	84
1579	90
1580	120
1581	95
1582	101
1583	72
1584	100
1585	92
1586	86
1587	112
1588	107
1589	93
1590	97
1591	91
1592	102
1593	96
1594	109
1595	88
1596	113
1597	94
1598	89
1599	86
1600	103
1601	112
1602	89
1603	81
1604	104
1605	95
1606	82
1607	89
1608	85
1609	84
1610	84
1611	88
1612	86
1613	86
1614	94
1615	73
1616	67
1617	97
1618	83
1619	89
1620	100
1621	74
1622	93
1623	71
1624	92
1625	107
1626	93
1627	70
1628	81
1629	83
1630	75
1631	77
1632	86
1633	89
1634	99
1635	69
1636	59
1637	78
1638	91
1639	90
1640	70
1641	70
1642	76
1643	73
1644	60
1645	83
1646	79
1647	77
1648	80
1649	87
1650	69
1651	74
1652	81
1653	67
1654	74
1655	62
1656	79
1657	82
1658	61
1659	72
1660	71
1661	86
1662	68
1663	80
1664	71
1665	78
1666	74
1667	71
1668	97
1669	62
1670	77
1671	72
1672	73
1673	71
1674	88
1675	55
1676	75
1677	76
1678	55
1679	67
1680	72
1681	76
1682	66
1683	71
1684	80
1685	73
1686	71
1687	67
1688	58
1689	52
1690	49
1691	68
1692	61
1693	70
1694	63
1695	62
1696	79
1697	81
1698	78
1699	66
1700	62
1701	71
1702	74
1703	78
1704	64
1705	55
1706	65
1707	59
1708	66
1709	62
1710	65
1711	73
1712	64
1713	68
1714	52
1715	56
1716	62
1717	70
1718	66
1719	60
1720	54
1721	54
1722	59
1723	58
1724	64
1725	52
1726	57
1727	70
1728	76
1729	69
1730	63
1731	58
1732	49
1733	41
1734	67
1735	65
1736	69
1737	48
1738	64
1739	58
1740	56
1741	61
1742	57
1743	59
1744	60
1745	61
1746	53
1747	56
1748	44
1749	47
1750	53
1751	61
1752	53
1753	57
1754	62
1755	57
1756	55
1757	63
1758	53
1759	53
1760	54
1761	64
1762	44
1763	53
1764	49
1765	45
1766	51
1767	50
1768	44
1769	54
1770	58
1771	37
1772	46
1773	40
1774	41
1775	49
1776	40
1777	40
1778	52
1779	48
1780	42
1781	52
1782	38
1783	54
1784	50
1785	60
1786	52
1787	54
1788	46
1789	55
1790	48
1791	57
1792	49
1793	51
1794	52
1795	46
1796	41
1797	31
1798	51
1799	45
1800	44
1801	35
1802	42
1803	40
1804	36
1805	43
1806	49
1807	44
1808	42
1809	44
1810	36
1811	50
1812	52
1813	35
1814	40
1815	35
1816	36
1817	41
1818	41
1819	33
1820	43
1821	42
1822	47
1823	37
1824	58
1825	37
1826	37
1827	39
1828	60
1829	37
1830	41
1831	33
1832	47
1833	44
1834	50
1835	29
1836	41
1837	37
1838	35
1839	43
1840	42
1841	38
1842	28
1843	40
1844	38
1845	36
1846	37
1847	33
1848	37
1849	40
1850	34
1851	33
1852	44
1853	40
1854	40
1855	30
1856	32
1857	32
1858	46
1859	39
1860	48
1861	40
1862	37
1863	42
1864	40
1865	39
1866	37
1867	37
1868	37
1869	32
1870	43
1871	43
1872	36
1873	36
1874	32
1875	38
1876	38
1877	26
1878	34
1879	40
1880	40
1881	31
1882	39
1883	37
1884	37
1885	34
1886	32
1887	32
1888	37
1889	29
1890	31
1891	30
1892	32
1893	42
1894	36
1895	39
1896	31
1897	39
1898	32
1899	34
1900	40
1901	35
1902	28
1903	25
1904	45
1905	32
1906	32
1907	32
1908	34
1909	38
1910	32
1911	45
1912	32
1913	31
1914	36
1915	34
1916	26
1917	33
1918	30
1919	31
1920	39
1921	31
1922	20
1923	34
1924	39
1925	40
1926	33
1927	25
1928	28
1929	33
1930	20
1931	30
1932	32
1933	27
1934	23
1935	39
1936	31
1937	39
1938	30
1939	26
1940	30
1941	31
1942	26
1943	29
1944	28
1945	32
1946	31
1947	28
1948	25
1949	23
1950	28
1951	27
1952	29
1953	40
1954	31
1955	27
1956	24
1957	28
1958	29
1959	21
1960	30
1961	29
1962	26
1963	38
1964	31
1965	36
1966	42
1967	36
1968	27
1969	29
1970	30
1971	29
1972	33
1973	17
1974	21
1975	26
1976	25
1977	26
1978	33
1979	16
1980	26
1981	27
1982	20
1983	27
1984	29
1985	30
1986	22
1987	15
1988	30
1989	27
1990	25
1991	31
1992	29
1993	23
1994	22
1995	20
1996	29
1997	22
1998	27
1999	25
2000	23
2001	25
2002	18
2003	22
2004	18
2005	29
2006	27
2007	20
2008	33
2009	28
2010	22
2011	31
2012	19
2013	28
2014	36
2015	35
2016	27
2017	33
2018	28
2019	31
2020	23
2021	23
2022	22
2023	30
2024	37
2025	26
2026	28
2027	31
2028	21
2029	25
2030	19
2031	19
2032	24
2033	19
2034	21
2035	23
2036	23
2037	15
2038	30
2039	31
2040	32
2041	18
2042	25
2043	30
2044	19
2045	22
2046	18
2047	33
2048	21
2049	29
2050	17
2051	19
2052	22
2053	25
2054	28
2055	24
2056	22
2057	15
2058	28
2059	23
2060	19
2061	18
2062	21
2063	26
2064	31
2065	29
2066	29
2067	17
2068	20
2069	29
2070	25
2071	19
2072	21
2073	17
2074	21
2075	21
2076	27
2077	19
2078	20
2079	20
2080	25
2081	24
2082	14
2083	25
2084	15
2085	20
2086	31
2087	23
2088	21
2089	22
2090	27
2091	23
2092	19
2093	22
2094	26
2095	8
2096	19
2097	13
2098	16
2099	19
2100	21
2101	16
2102	25
2103	21
2104	19
2105	22
2106	17
2107	20
2108	19
2109	23
2110	14
2111	19
2112	13
2113	17
2114	27
2115	14
2116	22
2117	28
2118	14
2119	27
2120	14
2121	20
2122	27
2123	19
2124	24
2125	22
2126	17
2127	18
2128	18
2129	25
2130	20
2131	23
2132	28
2133	11
2134	28
2135	27
2136	21
2137	23
2138	19
2139	24
2140	17
2141	27
2142	23
2143	13
2144	31
2145	31
2146	18
2147	21
2148	32
2149	16
2150	23
2151	22
2152	23
2153	23
2154	26
2155	23
2156	18
2157	29
2158	17
2159	27
2160	28
2161	22
2162	24
2163	21
2164	24
2165	24
2166	20
2167	22
2168	32
2169	27
2170	15
2171	26
2172	37
2173	25
2174	14
2175	27
2176	20
2177	14
2178	17
2179	24
2180	29
2181	28
2182	31
2183	20
2184	27
2185	33
2186	26
2187	29
2188	29
2189	29
2190	29
2191	23
2192	19
2193	36
2194	19
2195	20
2196	31
2197	25
2198	34
2199	29
2200	23
2201	27
2202	38
2203	29
2204	27
2205	32
2206	22
2207	30
2208	20
2209	27
2210	35
2211	18
2212	26
2213	22
2214	24
2215	23
2216	29
2217	15
2218	28
2219	23
2220	19
2221	26
2222	25
2223	36
2224	33
2225	30
2226	22
2227	20
2228	28
2229	28
2230	28
2231	40
2232	26
2233	17
2234	33
2235	27
2236	26
2237	30
2238	27
2239	27
2240	36
2241	22
2242	21
2243	17
2244	30
2245	27
2246	34
2247	27
2248	27
2249	22
2250	21
2251	29
2252	27
2253	23
2254	27
2255	30
2256	18
2257	19
2258	21
2259	28
2260	27
2261	24
2262	27
2263	26
2264	29
2265	30
2266	23
2267	21
2268	18
2269	26
2270	25
2271	27
2272	21
2273	24
2274	27
2275	15
2276	24
2277	27
2278	21
2279	16
2280	27
2281	25
2282	39
2283	28
2284	24
2285	25
2286	27
2287	26
2288	24
2289	20
2290	18
2291	17
2292	28
2293	29
2294	19
2295	28
2296	25
2297	18
2298	13
2299	19
2300	28
2301	13
2302	23
2303	18
2304	24
2305	30
2306	19
2307	21
2308	24
2309	34
2310	25
2311	20
2312	22
2313	22
2314	24
2315	21
2316	28
2317	15
2318	21
2319	24
2320	22
2321	27
2322	40
2323	12
2324	25
2325	19
2326	27
2327	21
2328	27
2329	29
2330	23
2331	22
2332	28
2333	19
2334	12
2335	30
2336	26
2337	20
2338	25
2339	27
2340	23
2341	23
2342	24
2343	17
2344	18
2345	33
2346	16
2347	26
2348	23
2349	23
2350	14
2351	18
2352	21
2353	19
2354	28
2355	22
2356	17
2357	30
2358	18
2359	27
2360	19
2361	17
2362	19
2363	19
2364	20
2365	25
2366	27
2367	10
2368	19
2369	19
2370	20
2371	24
2372	19
2373	29
2374	22
2375	20
2376	28
2377	16
2378	22
2379	19
2380	18
2381	20
2382	15
2383	21
2384	16
2385	17
2386	25
2387	17
2388	31
2389	29
2390	19
2391	25
2392	22
2393	16
2394	15
2395	19
2396	29
2397	19
2398	21
2399	24
2400	18
2401	20
2402	24
2403	32
2404	16
2405	27
2406	27
2407	20
2408	20
2409	24
2410	17
2411	20
2412	24
2413	24
2414	17
2415	20
2416	18
2417	22
2418	20
2419	16
2420	19
2421	18
2422	18
2423	21
2424	18
2425	10
2426	20
2427	25
2428	28
2429	19
2430	13
2431	22
2432	17
2433	18
2434	23
2435	27
2436	22
2437	17
2438	23
2439	23
2440	20
2441	22
2442	21
2443	21
2444	26
2445	10
2446	20
2447	18
2448	11
2449	14
2450	18
2451	18
2452	20
2453	20
2454	20
2455	23
2456	19
2457	18
2458	23
2459	18
2460	22
2461	19
2462	23
2463	20
2464	16
2465	11
2466	23
2467	21
2468	12
2469	20
2470	23
2471	13
2472	19
2473	20
2474	15
2475	16
2476	21
2477	22
2478	14
2479	24
2480	29
2481	26
2482	20
2483	17
2484	20
2485	12
2486	23
2487	21
2488	20
2489	28
2490	20
2491	28
2492	12
2493	15
2494	22
2495	13
2496	18
2497	14
2498	18
2499	14
2500	19
2501	12
2502	14
2503	19
2504	20
2505	21
2506	28
2507	13
2508	21
2509	25
2510	18
2511	21
2512	11
2513	14
2514	17
2515	24
2516	15
2517	12
2518	18
2519	25
2520	15
2521	17
2522	15
2523	11
2524	19
2525	17
2526	17
2527	22
2528	15
2529	14
2530	15
2531	25
2532	19
2533	16
2534	19
2535	12
2536	22
2537	13
2538	17
2539	13
2540	14
2541	13
2542	21
2543	16
2544	8
2545	12
2546	22
2547	11
2548	18
2549	20
2550	13
2551	9
2552	24
2553	25
2554	18
2555	19
2556	18
2557	22
2558	13
2559	21
2560	17
2561	24
2562	13
2563	17
2564	18
2565	26
2566	14
2567	21
2568	21
2569	11
2570	16
2571	20
2572	21
2573	24
2574	17
2575	5
2576	16
2577	18
2578	21
2579	15
2580	19
2581	16
2582	15
2583	10
2584	11
2585	12
2586	15
2587	21
2588	17
2589	14
2590	18
2591	14
2592	11
2593	23
2594	13
2595	14
2596	12
2597	10
2598	17
2599	18
2600	16
2601	16
2602	14
2603	16
2604	13
2605	19
2606	15
2607	13
2608	16
2609	24
2610	15
2611	23
2612	12
2613	18
2614	19
2615	15
2616	21
2617	15
2618	19
2619	17
2620	14
2621	16
2622	14
2623	13
2624	13
2625	15
2626	9
2627	19
2628	16
2629	20
2630	11
2631	15
2632	10
2633	20
2634	17
2635	13
2636	14
2637	14
2638	20
2639	16
2640	19
2641	24
2642	16
2643	15
2644	19
2645	10
2646	16
2647	15
2648	21
2649	17
2650	14
2651	13
2652	14
2653	14
2654	12
2655	13
2656	14
2657	7
2658	20
2659	14
2660	11
2661	14
2662	14
2663	17
2664	14
2665	17
2666	21
2667	10
2668	17
2669	9
2670	12
2671	19
2672	18
2673	10
2674	15
2675	16
2676	16
2677	15
2678	16
2679	12
2680	16
2681	15
2682	14
2683	19
2684	23
2685	16
2686	16
2687	13
2688	8
2689	16
2690	18
2691	13
2692	15
2693	13
2694	12
2695	19
2696	14
2697	18
2698	16
2699	14
2700	13
2701	13
2702	19
2703	10
2704	13
2705	13
2706	20
2707	10
2708	9
2709	15
2710	13
2711	14
2712	11
2713	12
2714	12
2715	18
2716	17
2717	13
2718	12
2719	16
2720	13
2721	12
2722	19
2723	22
2724	19
2725	15
2726	12
2727	11
2728	12
2729	13
2730	15
2731	16
2732	13
2733	15
2734	10
2735	18
2736	19
2737	14
2738	17
2739	11
2740	11
2741	15
2742	16
2743	8
2744	3
2745	11
2746	12
2747	16
2748	13
2749	13
2750	18
2751	13
2752	14
2753	12
2754	15
2755	11
2756	14
2757	13
2758	7
2759	12
2760	13
2761	10
2762	15
2763	9
2764	5
2765	14
2766	12
2767	14
2768	15
2769	14
2770	13
2771	8
2772	17
2773	10
2774	9
2775	12
2776	16
2777	9
2778	19
2779	9
2780	12
2781	4
2782	16
2783	19
2784	11
2785	16
2786	9
2787	12
2788	7
2789	16
2790	7
2791	9
2792	19
2793	11
2794	14
2795	13
2796	17
2797	12
2798	9
2799	16
2800	11
2801	13
2802	16
2803	3
2804	15
2805	13
2806	17
2807	10
2808	11
2809	13
2810	12
2811	15
2812	10
2813	10
2814	16
2815	12
2816	11
2817	15
2818	8
2819	14
2820	11
2821	7
2822	12
2823	16
2824	12
2825	17
2826	17
2827	12
2828	11
2829	11
2830	9
2831	6
2832	11
2833	11
2834	6
2835	6
2836	10
2837	12
2838	8
2839	10
2840	12
2841	11
2842	12
2843	6
2844	4
2845	10
2846	11
2847	6
2848	15
2849	16
2850	16
2851	6
2852	9
2853	13
2854	13
2855	6
2856	10
2857	8
2858	11
2859	8
2860	11
2861	7
2862	13
2863	11
2864	9
2865	8
2866	11
2867	12
2868	18
2869	8
2870	11
2871	5
2872	9
2873	8
2874	9
2875	13
2876	12
2877	10
2878	15
2879	14
2880	15
2881	10
2882	15
2883	12
2884	3
2885	10
2886	9
2887	14
2888	7
2889	4
2890	11
2891	21
2892	7
2893	6
2894	14
2895	7
2896	9
2897	9
2898	9
2899	15
2900	12
2901	6
2902	13
2903	5
2904	11
2905	9
2906	7
2907	14
2908	9
2909	8
2910	9
2911	8
2912	6
2913	21
2914	10
2915	13
2916	11
2917	11
2918	11
2919	8
2920	5
2921	11
2922	11
2923	3
2924	8
2925	7
2926	17
2927	6
2928	8
2929	9
2930	13
2931	7
2932	7
2933	6
2934	13
2935	4
2936	14
2937	5
2938	9
2939	11
2940	13
2941	8
2942	15
2943	7
2944	5
2945	5
2946	8
2947	9
2948	11
2949	13
2950	5
2951	12
2952	8
2953	3
2954	9
2955	12
2956	9
2957	4
2958	14
2959	13
2960	14
2961	5
2962	13
2963	14
2964	8
2965	5
2966	9
2967	5
2968	5
2969	12
2970	11
2971	17
2972	10
2973	11
2974	12
2975	13
2976	12
2977	8
2978	12
2979	6
2980	11
2981	8
2982	5
2983	7
2984	12
2985	2
2986	9
2987	9
2988	9
2989	7
2990	10
2991	10
2992	7
2993	7
2994	13
2995	17
2996	13
2997	7
2998	4
2999	10
3000	7
3001	6
3002	11
3003	16
3004	10
3005	9
3006	8
3007	7
3008	10
3009	15
3010	9
3011	12
3012	10
3013	14
3014	4
3015	9
3016	10
3017	7
3018	8
3019	8
3020	15
3021	8
3022	13
3023	6
3024	12
3025	13
3026	7
3027	5
3028	10
3029	5
3030	11
3031	6
3032	11
3033	12
3034	3
3035	9
3036	10
3037	13
3038	5
3039	8
3040	5
3041	9
3042	6
3043	9
3044	12
3045	11
3046	8
3047	13
3048	8
3049	9
3050	7
3051	6
3052	7
3053	9
3054	7
3055	2
3056	7
3057	3
3058	12
3059	9
3060	14
3061	5
3062	6
3063	9
3064	4
3065	8
3066	9
3067	9
3068	7
3069	9
3070	9
3071	9
3072	8
3073	11
3074	6
3075	15
3076	10
3077	6
3078	9
3079	10
3080	7
3081	10
3082	10
3083	9
3084	8
3085	10
3086	9
3087	5
3088	6
3089	3
3090	9
3091	4
3092	12
3093	15
3094	7
3095	7
3096	7
3097	9
3098	6
3099	8
3100	11
3101	14
3102	9
3103	2
3104	10
3105	14
3106	8
3107	5
3108	11
3109	8
3110	3
3111	9
3112	9
3113	9
3114	11
3115	2
3116	2
3117	5
3118	9
3119	8
3120	6
3121	5
3122	16
3123	6
3124	8
3125	10
3126	10
3127	6
3128	3
3129	8
3130	8
3131	4
3132	9
3133	8
3134	9
3135	9
3136	2
3137	12
3138	9
3139	10
3140	7
3141	7
3142	7
3143	5
3144	9
3145	10
3146	6
3147	5
3148	12
3149	5
3150	7
3151	8
3152	3
3153	14
3154	5
3155	6
3156	4
3157	10
3158	4
3159	9
3160	10
3161	8
3162	5
3163	8
3164	10
3165	5
3166	6
3167	8
3168	5
3169	10
3170	5
3171	10
3172	11
3173	7
3174	9
3175	11
3176	8
3177	5
3178	4
3179	8
3180	12
3181	9
3182	10
3183	6
3184	9
3185	5
3186	9
3187	5
3188	10
3189	7
3190	4
3191	5
3192	8
3193	8
3194	3
3195	6
3196	9
3197	14
3198	10
3199	5
3200	4
3201	9
3202	11
3203	9
3204	8
3205	11
3206	7
3207	9
3208	4
3209	3
3210	2
3211	4
3212	9
3213	4
3214	10
3215	11
3216	8
3217	4
3218	5
3219	8
3220	6
3221	10
3222	8
3223	6
3224	6
3225	9
3226	3
3227	8
3228	7
3229	8
3230	8
3231	10
3232	4
3233	4
3234	5
3235	8
3236	7
3237	2
3238	5
3239	5
3240	8
3241	3
3242	10
3243	4
3244	6
3245	4
3246	4
3247	9
3248	7
3249	11
3250	7
3251	7
3252	8
3253	2
3254	4
3255	6
3256	7
3257	10
3258	7
3259	8
3260	5
3261	12
3262	7
3263	6
3264	5
3265	3
3266	7
3267	6
3268	9
3269	6
3270	7
3271	9
3272	5
3273	6
3274	6
3275	10
3276	7
3277	8
3278	5
3279	6
3280	8
3281	4
3282	2
3283	5
3284	8
3285	11
3286	5
3287	4
3288	6
3289	4
3290	2
3291	5
3292	7
3293	2
3294	10
3295	8
3296	6
3297	5
3298	8
3299	8
3300	4
3301	11
3302	7
3303	5
3304	3
3305	9
3306	5
3307	8
3308	4
3309	10
3310	9
3311	4
3312	7
3313	12
3314	1
3315	7
3316	8
3317	14
3318	5
3319	9
3320	5
3321	5
3322	7
3323	5
3324	8
3325	7
3326	7
3327	7
3328	3
3329	9
3330	8
3331	6
3332	5
3333	4
3334	5
3335	7
3336	5
3337	7
3338	6
3339	3
3340	7
3341	11
3342	3
3343	9
3344	5
3345	8
3346	12
3347	5
3348	4
3349	11
3350	11
3351	12
3352	3
3353	6
3354	13
3355	7
3356	8
3357	6
3358	11
3359	5
3360	3
3361	10
3362	8
3363	10
3364	4
3365	6
3366	11
3367	5
3368	5
3369	6
3370	8
3371	6
3372	4
3373	5
3374	7
3375	10
3376	3
3377	9
3378	3
3379	8
3380	7
3381	7
3382	6
3383	5
3384	6
3385	5
3386	6
3387	5
3388	4
3389	4
3390	7
3391	10
3392	3
3393	5
3394	11
3395	6
3396	4
3397	5
3398	8
3399	5
3400	10
3401	2
3402	2
3403	0
3404	9
3405	10
3406	2
3407	5
3408	8
3409	4
3410	8
3411	9
3412	7
3413	3
3414	11
3415	7
3416	5
3417	12
3418	6
3419	3
3420	4
3421	4
3422	4
3423	6
3424	7
3425	4
3426	12
3427	8
3428	6
3429	6
3430	6
3431	8
3432	9
3433	5
3434	8
3435	14
3436	4
3437	7
3438	6
3439	6
3440	6
3441	4
3442	11
3443	5
3444	6
3445	7
3446	7
3447	5
3448	8
3449	8
3450	7
3451	6
3452	5
3453	8
3454	10
3455	6
3456	3
3457	3
3458	6
3459	8
3460	10
3461	4
3462	5
3463	12
3464	5
3465	8
3466	4
3467	6
3468	7
3469	8
3470	5
3471	5
3472	7
3473	3
3474	8
3475	5
3476	8
3477	4
3478	3
3479	4
3480	9
3481	8
3482	3
3483	5
3484	6
3485	8
3486	6
3487	6
3488	3
3489	9
3490	5
3491	8
3492	3
3493	7
3494	6
3495	7
3496	5
3497	8
3498	3
3499	6
3500	5
3501	8
3502	2
3503	8
3504	9
3505	10
3506	5
3507	8
3508	8
3509	7
3510	5
3511	6
3512	2
3513	5
3514	7
3515	10
3516	5
3517	4
3518	4
3519	6
3520	7
3521	5
3522	5
3523	10
3524	9
3525	11
3526	3
3527	11
3528	8
3529	10
3530	8
3531	3
3532	6
3533	1
3534	6
3535	7
3536	8
3537	5
3538	10
3539	5
3540	3
3541	4
3542	7
3543	5
3544	5
3545	8
3546	5
3547	4
3548	9
3549	4
3550	4
3551	3
3552	8
3553	5
3554	2
3555	2
3556	7
3557	4
3558	6
3559	4
3560	8
3561	5
3562	7
3563	7
3564	2
3565	11
3566	4
3567	1
3568	8
3569	5
3570	5
3571	3
3572	9
3573	10
3574	4
3575	7
3576	8
3577	5
3578	4
3579	2
3580	8
3581	6
3582	2
3583	11
3584	5
3585	8
3586	3
3587	6
3588	5
3589	7
3590	4
3591	5
3592	3
3593	4
3594	5
3595	5
3596	7
3597	6
3598	7
3599	4
3600	5
3601	9
3602	4
3603	4
3604	1
3605	9
3606	9
3607	9
3608	8
3609	7
3610	5
3611	9
3612	3
3613	6
3614	7
3615	5
3616	5
3617	7
3618	8
3619	9
3620	7
3621	5
3622	12
3623	7
3624	6
3625	7
3626	7
3627	5
3628	5
3629	9
3630	4
3631	6
3632	5
3633	6
3634	7
3635	6
3636	4
3637	7
3638	4
3639	6
3640	5
3641	5
3642	2
3643	5
3644	5
3645	6
3646	7
3647	8
3648	6
3649	7
3650	3
3651	11
3652	5
3653	7
3654	5
3655	5
3656	6
3657	5
3658	7
3659	4
3660	4
3661	9
3662	2
3663	5
3664	9
3665	7
3666	12
3667	5
3668	9
3669	5
3670	7
3671	8
3672	8
3673	8
3674	6
3675	4
3676	5
3677	8
3678	9
3679	5
3680	2
3681	6
3682	4
3683	7
3684	7
3685	4
3686	2
3687	7
3688	6
3689	11
3690	5
3691	6
3692	9
3693	2
3694	6
3695	2
3696	4
3697	9
3698	5
3699	3
3700	4
3701	9
3702	8
3703	8
3704	7
3705	8
3706	7
3707	7
3708	5
3709	5
3710	9
3711	2
3712	10
3713	6
3714	6
3715	3
3716	4
3717	3
3718	3
3719	4
3720	6
3721	6
3722	6
3723	0
3724	6
3725	8
3726	8
3727	5
3728	1
3729	5
3730	2
3731	9
3732	1
3733	6
3734	2
3735	9
3736	6
3737	6
3738	11
3739	5
3740	6
3741	2
3742	10
3743	4
3744	6
3745	5
3746	4
3747	3
3748	5
3749	4
3750	7
3751	9
3752	4
3753	4
3754	3
3755	7
3756	5
3757	5
3758	7
3759	2
3760	5
3761	3
3762	4
3763	5
3764	5
3765	5
3766	4
3767	3
3768	2
3769	6
3770	4
3771	8
3772	3
3773	5
3774	8
3775	8
3776	9
3777	7
3778	7
3779	10
3780	6
3781	6
3782	4
3783	6
3784	4
3785	7
3786	4
3787	9
3788	5
3789	3
3790	10
3791	1
3792	4
3793	4
3794	1
3795	6
3796	6
3797	3
3798	5
3799	3
3800	4
3801	7
3802	3
3803	7
3804	5
3805	8
3806	8
3807	7
3808	7
3809	5
3810	7
3811	8
3812	7
3813	3
3814	9
3815	6
3816	3
3817	5
3818	9
3819	2
3820	11
3821	1
3822	7
3823	5
3824	3
3825	5
3826	9
3827	3
3828	11
3829	7
3830	10
3831	4
3832	4
3833	7
3834	6
3835	3
3836	2
3837	6
3838	7
3839	0
3840	2
3841	1
3842	0
3843	0
3844	0
3845	0
3846	0
3847	0
3848	0
3849	0
3850	0
3851	0
3852	0
