Item name: Prompt

Real time: 70.2
Live time: 53.64

Comment: 


Chan	Data
1	0
2	0
3	0
4	0
5	0
6	0
7	0
8	0
9	0
10	0
11	0
12	0
13	0
14	0
15	0
16	0
17	0
18	0
19	0
20	0
21	0
22	0
23	0
24	0
25	0
26	0
27	0
28	0
29	0
30	0
31	0
32	0
33	0
34	0
35	0
36	0
37	0
38	0
39	0
40	0
41	0
42	0
43	0
44	0
45	0
46	0
47	0
48	0
49	0
50	0
51	0
52	0
53	0
54	0
55	0
56	0
57	0
58	0
59	0
60	0
61	0
62	0
63	0
64	0
65	0
66	0
67	0
68	0
69	0
70	0
71	0
72	0
73	0
74	0
75	0
76	0
77	0
78	0
79	0
80	0
81	0
82	0
83	0
84	0
85	0
86	0
87	0
88	0
89	0
90	0
91	0
92	0
93	0
94	0
95	0
96	0
97	0
98	0
99	0
100	0
101	0
102	0
103	0
104	1
105	2
106	0
107	3
108	0
109	2
110	0
111	1
112	1
113	1
114	2
115	2
116	2
117	2
118	3
119	2
120	2
121	0
122	1
123	3
124	0
125	1
126	1
127	1
128	1
129	1
130	2
131	1
132	1
133	1
134	0
135	1
136	0
137	0
138	0
139	4
140	1
141	1
142	1
143	2
144	1
145	3
146	0
147	4
148	1
149	1
150	1
151	1
152	0
153	0
154	1
155	0
156	2
157	2
158	1
159	2
160	3
161	2
162	0
163	1
164	3
165	1
166	1
167	0
168	0
169	0
170	0
171	0
172	0
173	1
174	3
175	1
176	1
177	2
178	3
179	0
180	0
181	3
182	0
183	2
184	2
185	4
186	1
187	2
188	0
189	1
190	2
191	1
192	2
193	1
194	0
195	3
196	3
197	1
198	1
199	0
200	3
201	0
202	1
203	0
204	1
205	0
206	0
207	1
208	4
209	2
210	1
211	0
212	1
213	1
214	0
215	2
216	0
217	0
218	1
219	3
220	1
221	2
222	1
223	3
224	1
225	1
226	1
227	0
228	0
229	1
230	1
231	0
232	0
233	0
234	1
235	1
236	1
237	1
238	1
239	4
240	0
241	1
242	0
243	0
244	0
245	3
246	2
247	3
248	3
249	1
250	0
251	0
252	1
253	1
254	0
255	1
256	2
257	2
258	1
259	1
260	0
261	0
262	0
263	1
264	2
265	0
266	2
267	2
268	1
269	0
270	1
271	4
272	1
273	1
274	2
275	1
276	2
277	3
278	1
279	1
280	0
281	0
282	0
283	3
284	2
285	0
286	1
287	1
288	0
289	3
290	4
291	2
292	1
293	1
294	2
295	2
296	0
297	0
298	2
299	2
300	1
301	0
302	0
303	1
304	1
305	2
306	1
307	1
308	0
309	3
310	0
311	0
312	1
313	1
314	3
315	2
316	3
317	0
318	0
319	1
320	1
321	2
322	1
323	1
324	1
325	1
326	0
327	4
328	1
329	0
330	0
331	0
332	2
333	3
334	0
335	1
336	2
337	2
338	1
339	2
340	2
341	1
342	1
343	0
344	1
345	2
346	1
347	0
348	2
349	1
350	2
351	1
352	1
353	0
354	1
355	2
356	1
357	1
358	3
359	0
360	1
361	0
362	2
363	5
364	1
365	0
366	3
367	0
368	1
369	2
370	2
371	0
372	0
373	2
374	4
375	1
376	2
377	5
378	2
379	0
380	0
381	4
382	2
383	1
384	1
385	2
386	0
387	0
388	1
389	2
390	2
391	2
392	0
393	0
394	0
395	2
396	1
397	1
398	2
399	0
400	0
401	2
402	0
403	2
404	1
405	1
406	4
407	3
408	1
409	2
410	3
411	0
412	2
413	0
414	1
415	3
416	1
417	1
418	0
419	1
420	2
421	3
422	2
423	0
424	1
425	3
426	1
427	1
428	0
429	0
430	1
431	1
432	3
433	1
434	1
435	2
436	0
437	0
438	1
439	0
440	1
441	0
442	1
443	1
444	0
445	2
446	2
447	1
448	0
449	0
450	0
451	0
452	0
453	2
454	1
455	2
456	0
457	5
458	1
459	2
460	1
461	2
462	2
463	2
464	2
465	3
466	2
467	4
468	1
469	3
470	2
471	1
472	0
473	1
474	1
475	5
476	0
477	1
478	1
479	1
480	5
481	3
482	2
483	4
484	7
485	10
486	9
487	4
488	8
489	8
490	10
491	19
492	13
493	19
494	16
495	35
496	48
497	51
498	60
499	68
500	92
501	109
502	125
503	142
504	188
505	233
506	284
507	388
508	417
509	564
510	699
511	888
512	1182
513	1446
514	1764
515	2256
516	2819
517	3634
518	4437
519	5412
520	6773
521	8039
522	10081
523	12106
524	14183
525	16906
526	19616
527	22904
528	26030
529	29470
530	32053
531	35475
532	38893
533	41588
534	44579
535	46402
536	48133
537	49216
538	50068
539	49947
540	49000
541	48380
542	47423
543	45089
544	43017
545	40805
546	38487
547	35884
548	33041
549	30848
550	28567
551	26038
552	23715
553	21671
554	19533
555	17472
556	15909
557	14375
558	12725
559	11515
560	10272
561	8794
562	8075
563	7206
564	6277
565	5549
566	4735
567	4271
568	3687
569	3316
570	2935
571	2451
572	2252
573	1974
574	1813
575	1601
576	1445
577	1217
578	1237
579	1057
580	1011
581	940
582	857
583	852
584	774
585	747
586	684
587	693
588	746
589	632
590	595
591	587
592	561
593	565
594	532
595	508
596	538
597	502
598	471
599	510
600	482
601	450
602	431
603	447
604	430
605	427
606	427
607	384
608	415
609	412
610	384
611	395
612	394
613	428
614	379
615	420
616	443
617	426
618	436
619	440
620	488
621	485
622	520
623	505
624	567
625	561
626	567
627	567
628	625
629	578
630	671
631	635
632	624
633	614
634	639
635	644
636	601
637	614
638	617
639	554
640	583
641	540
642	500
643	444
644	449
645	432
646	428
647	370
648	385
649	349
650	330
651	283
652	297
653	260
654	242
655	238
656	237
657	202
658	175
659	159
660	156
661	143
662	132
663	146
664	129
665	106
666	117
667	100
668	92
669	78
670	47
671	72
672	55
673	64
674	61
675	63
676	57
677	42
678	39
679	47
680	49
681	35
682	45
683	35
684	31
685	27
686	33
687	36
688	24
689	19
690	24
691	22
692	20
693	16
694	23
695	19
696	22
697	24
698	17
699	18
700	17
701	14
702	15
703	20
704	15
705	12
706	16
707	14
708	18
709	16
710	12
711	10
712	16
713	8
714	14
715	16
716	12
717	20
718	14
719	6
720	20
721	15
722	14
723	11
724	11
725	10
726	14
727	18
728	8
729	12
730	17
731	14
732	15
733	17
734	16
735	18
736	9
737	5
738	16
739	16
740	16
741	7
742	9
743	6
744	12
745	4
746	13
747	8
748	9
749	6
750	9
751	10
752	6
753	9
754	11
755	4
756	6
757	6
758	14
759	4
760	3
761	5
762	9
763	5
764	5
765	2
766	5
767	7
768	4
769	1
770	5
771	6
772	5
773	3
774	3
775	0
776	3
777	5
778	8
779	7
780	4
781	6
782	4
783	3
784	5
785	3
786	3
787	2
788	11
789	4
790	1
791	3
792	3
793	7
794	3
795	4
796	2
797	3
798	4
799	1
800	1
801	2
802	2
803	4
804	4
805	2
806	2
807	6
808	1
809	4
810	0
811	0
812	4
813	5
814	5
815	1
816	2
817	1
818	3
819	1
820	6
821	4
822	4
823	7
824	2
825	0
826	1
827	1
828	3
829	2
830	1
831	1
832	5
833	1
834	7
835	3
836	4
837	4
838	2
839	2
840	5
841	1
842	0
843	3
844	0
845	3
846	1
847	3
848	1
849	3
850	1
851	1
852	1
853	1
854	1
855	3
856	4
857	3
858	1
859	3
860	5
861	4
862	2
863	1
864	5
865	1
866	3
867	1
868	3
869	5
870	2
871	0
872	5
873	5
874	3
875	4
876	5
877	5
878	2
879	3
880	3
881	3
882	3
883	2
884	5
885	2
886	5
887	3
888	1
889	3
890	3
891	3
892	3
893	1
894	3
895	3
896	3
897	4
898	4
899	2
900	0
901	2
902	5
903	3
904	3
905	6
906	2
907	5
908	3
909	5
910	2
911	5
912	2
913	2
914	6
915	6
916	2
917	3
918	4
919	2
920	2
921	6
922	9
923	7
924	2
925	7
926	9
927	4
928	2
929	6
930	5
931	3
932	3
933	6
934	3
935	3
936	5
937	3
938	8
939	2
940	6
941	4
942	7
943	0
944	6
945	5
946	4
947	8
948	1
949	4
950	4
951	2
952	2
953	4
954	1
955	4
956	5
957	6
958	10
959	6
960	7
961	7
962	8
963	4
964	5
965	4
966	3
967	7
968	6
969	5
970	3
971	5
972	4
973	6
974	3
975	4
976	3
977	10
978	6
979	5
980	7
981	5
982	6
983	3
984	4
985	4
986	7
987	10
988	5
989	4
990	4
991	4
992	5
993	5
994	3
995	8
996	7
997	4
998	5
999	6
1000	1
1001	1
1002	5
1003	2
1004	9
1005	6
1006	6
1007	5
1008	8
1009	3
1010	3
1011	5
1012	5
1013	6
1014	5
1015	4
1016	4
1017	3
1018	2
1019	7
1020	7
1021	5
1022	5
1023	6
1024	4
1025	4
1026	6
1027	8
1028	4
1029	8
1030	2
1031	3
1032	7
1033	5
1034	3
1035	5
1036	4
1037	3
1038	7
1039	4
1040	0
1041	6
1042	9
1043	0
1044	6
1045	4
1046	9
1047	4
1048	2
1049	3
1050	7
1051	3
1052	7
1053	5
1054	3
1055	7
1056	1
1057	7
1058	5
1059	2
1060	2
1061	5
1062	5
1063	7
1064	5
1065	3
1066	4
1067	2
1068	4
1069	4
1070	4
1071	4
1072	9
1073	2
1074	4
1075	5
1076	5
1077	6
1078	6
1079	7
1080	2
1081	6
1082	4
1083	4
1084	7
1085	1
1086	1
1087	4
1088	3
1089	4
1090	4
1091	6
1092	0
1093	6
1094	2
1095	4
1096	4
1097	6
1098	3
1099	4
1100	5
1101	7
1102	3
1103	5
1104	4
1105	3
1106	4
1107	5
1108	5
1109	7
1110	5
1111	4
1112	2
1113	0
1114	3
1115	4
1116	5
1117	4
1118	2
1119	4
1120	4
1121	1
1122	3
1123	5
1124	2
1125	3
1126	5
1127	2
1128	3
1129	4
1130	3
1131	0
1132	3
1133	2
1134	5
1135	2
1136	7
1137	4
1138	2
1139	2
1140	2
1141	1
1142	1
1143	1
1144	4
1145	4
1146	6
1147	0
1148	5
1149	2
1150	2
1151	2
1152	4
1153	2
1154	2
1155	7
1156	2
1157	2
1158	3
1159	3
1160	2
1161	1
1162	2
1163	2
1164	5
1165	1
1166	3
1167	3
1168	3
1169	6
1170	4
1171	5
1172	6
1173	3
1174	4
1175	2
1176	7
1177	2
1178	3
1179	2
1180	2
1181	4
1182	1
1183	2
1184	6
1185	3
1186	1
1187	5
1188	1
1189	1
1190	2
1191	3
1192	5
1193	2
1194	3
1195	5
1196	0
1197	3
1198	4
1199	0
1200	4
1201	2
1202	3
1203	5
1204	2
1205	2
1206	1
1207	3
1208	2
1209	1
1210	2
1211	0
1212	4
1213	3
1214	4
1215	1
1216	4
1217	4
1218	0
1219	2
1220	0
1221	4
1222	0
1223	5
1224	1
1225	4
1226	2
1227	0
1228	2
1229	3
1230	2
1231	4
1232	3
1233	1
1234	5
1235	1
1236	5
1237	2
1238	2
1239	1
1240	4
1241	0
1242	2
1243	3
1244	0
1245	4
1246	4
1247	2
1248	0
1249	3
1250	0
1251	2
1252	2
1253	1
1254	2
1255	2
1256	1
1257	2
1258	3
1259	4
1260	3
1261	1
1262	5
1263	1
1264	0
1265	4
1266	1
1267	1
1268	4
1269	1
1270	6
1271	3
1272	3
1273	3
1274	1
1275	3
1276	6
1277	0
1278	6
1279	2
1280	1
1281	2
1282	2
1283	3
1284	2
1285	1
1286	2
1287	5
1288	2
1289	2
1290	3
1291	2
1292	1
1293	0
1294	2
1295	3
1296	3
1297	2
1298	0
1299	3
1300	2
1301	1
1302	0
1303	0
1304	5
1305	4
1306	4
1307	5
1308	2
1309	2
1310	3
1311	1
1312	4
1313	2
1314	0
1315	2
1316	5
1317	3
1318	2
1319	1
1320	2
1321	6
1322	2
1323	4
1324	4
1325	2
1326	2
1327	2
1328	1
1329	2
1330	1
1331	1
1332	3
1333	5
1334	1
1335	2
1336	0
1337	5
1338	0
1339	2
1340	0
1341	5
1342	2
1343	1
1344	3
1345	0
1346	1
1347	0
1348	0
1349	2
1350	1
1351	2
1352	1
1353	3
1354	1
1355	1
1356	0
1357	0
1358	0
1359	3
1360	3
1361	2
1362	0
1363	2
1364	2
1365	3
1366	1
1367	2
1368	1
1369	0
1370	1
1371	2
1372	0
1373	1
1374	3
1375	2
1376	4
1377	0
1378	0
1379	2
1380	2
1381	0
1382	0
1383	4
1384	3
1385	2
1386	3
1387	1
1388	4
1389	1
1390	1
1391	2
1392	4
1393	2
1394	4
1395	4
1396	4
1397	0
1398	0
1399	2
1400	1
1401	2
1402	1
1403	0
1404	2
1405	2
1406	1
1407	1
1408	3
1409	0
1410	1
1411	0
1412	2
1413	1
1414	1
1415	2
1416	0
1417	2
1418	2
1419	1
1420	1
1421	0
1422	1
1423	0
1424	2
1425	0
1426	0
1427	4
1428	4
1429	2
1430	2
1431	1
1432	1
1433	0
1434	3
1435	1
1436	4
1437	2
1438	0
1439	2
1440	1
1441	3
1442	1
1443	1
1444	2
1445	1
1446	0
1447	2
1448	2
1449	0
1450	0
1451	0
1452	1
1453	1
1454	2
1455	2
1456	0
1457	4
1458	4
1459	1
1460	2
1461	0
1462	0
1463	2
1464	1
1465	3
1466	4
1467	1
1468	2
1469	0
1470	1
1471	2
1472	2
1473	6
1474	2
1475	0
1476	0
1477	2
1478	3
1479	2
1480	0
1481	0
1482	1
1483	1
1484	3
1485	1
1486	1
1487	1
1488	2
1489	0
1490	3
1491	0
1492	2
1493	3
1494	2
1495	1
1496	1
1497	2
1498	0
1499	0
1500	4
1501	3
1502	1
1503	4
1504	1
1505	2
1506	2
1507	3
1508	2
1509	0
1510	0
1511	1
1512	2
1513	2
1514	1
1515	3
1516	4
1517	6
1518	1
1519	0
1520	2
1521	2
1522	1
1523	1
1524	6
1525	3
1526	2
1527	2
1528	0
1529	2
1530	0
1531	3
1532	0
1533	2
1534	1
1535	2
1536	3
1537	2
1538	2
1539	1
1540	2
1541	2
1542	3
1543	1
1544	0
1545	1
1546	0
1547	1
1548	2
1549	2
1550	1
1551	0
1552	1
1553	2
1554	2
1555	1
1556	0
1557	2
1558	1
1559	1
1560	3
1561	3
1562	0
1563	2
1564	1
1565	0
1566	1
1567	4
1568	5
1569	1
1570	3
1571	3
1572	3
1573	1
1574	2
1575	2
1576	4
1577	1
1578	3
1579	3
1580	2
1581	1
1582	1
1583	0
1584	1
1585	3
1586	2
1587	0
1588	2
1589	3
1590	1
1591	0
1592	1
1593	1
1594	0
1595	2
1596	0
1597	1
1598	2
1599	3
1600	3
1601	1
1602	4
1603	1
1604	5
1605	1
1606	4
1607	1
1608	1
1609	0
1610	0
1611	1
1612	4
1613	3
1614	1
1615	0
1616	3
1617	4
1618	2
1619	2
1620	0
1621	3
1622	2
1623	6
1624	1
1625	2
1626	3
1627	1
1628	4
1629	2
1630	1
1631	1
1632	2
1633	2
1634	1
1635	6
1636	2
1637	1
1638	1
1639	3
1640	2
1641	2
1642	3
1643	1
1644	2
1645	5
1646	1
1647	0
1648	2
1649	2
1650	5
1651	3
1652	0
1653	5
1654	3
1655	3
1656	6
1657	2
1658	1
1659	1
1660	0
1661	2
1662	2
1663	2
1664	3
1665	4
1666	2
1667	1
1668	1
1669	0
1670	0
1671	4
1672	6
1673	1
1674	1
1675	3
1676	2
1677	2
1678	0
1679	3
1680	3
1681	3
1682	1
1683	1
1684	1
1685	0
1686	4
1687	2
1688	3
1689	2
1690	5
1691	3
1692	4
1693	3
1694	4
1695	1
1696	1
1697	3
1698	2
1699	5
1700	2
1701	0
1702	3
1703	0
1704	2
1705	1
1706	1
1707	1
1708	2
1709	4
1710	0
1711	5
1712	2
1713	2
1714	3
1715	2
1716	5
1717	1
1718	5
1719	2
1720	1
1721	1
1722	3
1723	4
1724	1
1725	1
1726	0
1727	1
1728	2
1729	5
1730	0
1731	2
1732	1
1733	4
1734	0
1735	2
1736	2
1737	1
1738	3
1739	4
1740	3
1741	2
1742	0
1743	0
1744	1
1745	4
1746	5
1747	3
1748	3
1749	1
1750	4
1751	5
1752	0
1753	4
1754	1
1755	1
1756	2
1757	4
1758	1
1759	3
1760	3
1761	4
1762	2
1763	4
1764	1
1765	3
1766	5
1767	3
1768	1
1769	2
1770	1
1771	5
1772	1
1773	5
1774	2
1775	0
1776	3
1777	4
1778	3
1779	1
1780	3
1781	4
1782	0
1783	3
1784	1
1785	4
1786	5
1787	3
1788	1
1789	1
1790	4
1791	1
1792	1
1793	4
1794	1
1795	1
1796	1
1797	4
1798	4
1799	2
1800	0
1801	1
1802	1
1803	2
1804	2
1805	1
1806	2
1807	3
1808	0
1809	2
1810	3
1811	4
1812	2
1813	2
1814	1
1815	4
1816	4
1817	3
1818	0
1819	2
1820	1
1821	2
1822	1
1823	4
1824	1
1825	5
1826	1
1827	3
1828	2
1829	2
1830	1
1831	1
1832	6
1833	1
1834	2
1835	4
1836	1
1837	2
1838	1
1839	3
1840	5
1841	2
1842	1
1843	3
1844	1
1845	1
1846	2
1847	2
1848	3
1849	3
1850	1
1851	4
1852	1
1853	1
1854	1
1855	3
1856	3
1857	3
1858	0
1859	4
1860	2
1861	3
1862	3
1863	0
1864	3
1865	5
1866	4
1867	0
1868	4
1869	2
1870	2
1871	1
1872	3
1873	1
1874	1
1875	3
1876	2
1877	2
1878	4
1879	3
1880	2
1881	1
1882	0
1883	0
1884	3
1885	2
1886	4
1887	2
1888	3
1889	6
1890	3
1891	1
1892	4
1893	3
1894	3
1895	1
1896	0
1897	4
1898	4
1899	2
1900	6
1901	2
1902	5
1903	0
1904	2
1905	4
1906	0
1907	3
1908	1
1909	2
1910	2
1911	2
1912	2
1913	1
1914	1
1915	1
1916	1
1917	1
1918	1
1919	2
1920	2
1921	1
1922	2
1923	1
1924	1
1925	2
1926	3
1927	2
1928	2
1929	4
1930	4
1931	0
1932	0
1933	3
1934	3
1935	2
1936	1
1937	1
1938	1
1939	1
1940	2
1941	4
1942	1
1943	2
1944	5
1945	2
1946	2
1947	4
1948	2
1949	4
1950	1
1951	1
1952	6
1953	3
1954	1
1955	2
1956	2
1957	1
1958	1
1959	1
1960	2
1961	1
1962	2
1963	3
1964	1
1965	2
1966	2
1967	2
1968	2
1969	0
1970	1
1971	0
1972	0
1973	0
1974	2
1975	2
1976	0
1977	1
1978	3
1979	2
1980	1
1981	1
1982	1
1983	0
1984	2
1985	2
1986	0
1987	2
1988	0
1989	1
1990	2
1991	3
1992	0
1993	2
1994	1
1995	2
1996	1
1997	1
1998	0
1999	5
2000	2
2001	1
2002	3
2003	2
2004	3
2005	2
2006	1
2007	1
2008	1
2009	1
2010	3
2011	2
2012	3
2013	2
2014	0
2015	5
2016	3
2017	2
2018	3
2019	1
2020	2
2021	0
2022	0
2023	2
2024	1
2025	3
2026	0
2027	1
2028	5
2029	3
2030	4
2031	1
2032	4
2033	2
2034	0
2035	3
2036	3
2037	4
2038	2
2039	3
2040	2
2041	1
2042	2
2043	3
2044	2
2045	2
2046	3
2047	5
2048	4
2049	2
2050	4
2051	1
2052	2
2053	3
2054	0
2055	5
2056	3
2057	1
2058	1
2059	5
2060	5
2061	2
2062	1
2063	6
2064	5
2065	5
2066	2
2067	8
2068	5
2069	4
2070	4
2071	6
2072	4
2073	2
2074	3
2075	3
2076	4
2077	6
2078	7
2079	3
2080	9
2081	4
2082	9
2083	2
2084	5
2085	3
2086	5
2087	5
2088	5
2089	11
2090	7
2091	7
2092	8
2093	13
2094	14
2095	14
2096	9
2097	6
2098	6
2099	6
2100	9
2101	11
2102	6
2103	12
2104	11
2105	8
2106	8
2107	13
2108	17
2109	9
2110	19
2111	19
2112	11
2113	11
2114	13
2115	12
2116	21
2117	9
2118	20
2119	11
2120	12
2121	11
2122	9
2123	24
2124	15
2125	17
2126	17
2127	18
2128	16
2129	18
2130	14
2131	13
2132	23
2133	18
2134	27
2135	18
2136	36
2137	18
2138	14
2139	21
2140	29
2141	25
2142	22
2143	22
2144	19
2145	27
2146	18
2147	18
2148	24
2149	27
2150	22
2151	24
2152	24
2153	25
2154	23
2155	22
2156	21
2157	27
2158	26
2159	26
2160	32
2161	25
2162	19
2163	20
2164	25
2165	21
2166	14
2167	17
2168	18
2169	16
2170	14
2171	17
2172	28
2173	25
2174	17
2175	27
2176	22
2177	23
2178	18
2179	31
2180	21
2181	19
2182	22
2183	17
2184	18
2185	20
2186	18
2187	22
2188	17
2189	23
2190	18
2191	24
2192	16
2193	21
2194	12
2195	9
2196	12
2197	19
2198	17
2199	13
2200	16
2201	17
2202	14
2203	15
2204	16
2205	7
2206	19
2207	16
2208	15
2209	21
2210	6
2211	15
2212	18
2213	11
2214	14
2215	15
2216	14
2217	11
2218	11
2219	13
2220	22
2221	13
2222	13
2223	8
2224	14
2225	19
2226	18
2227	13
2228	13
2229	13
2230	11
2231	13
2232	14
2233	16
2234	12
2235	13
2236	15
2237	16
2238	9
2239	8
2240	13
2241	9
2242	16
2243	5
2244	12
2245	16
2246	12
2247	8
2248	15
2249	11
2250	12
2251	7
2252	7
2253	13
2254	10
2255	11
2256	12
2257	9
2258	8
2259	11
2260	8
2261	16
2262	5
2263	6
2264	7
2265	5
2266	13
2267	10
2268	9
2269	10
2270	7
2271	8
2272	11
2273	11
2274	10
2275	9
2276	6
2277	9
2278	9
2279	11
2280	10
2281	8
2282	9
2283	3
2284	9
2285	7
2286	13
2287	11
2288	14
2289	10
2290	7
2291	8
2292	12
2293	2
2294	5
2295	9
2296	15
2297	10
2298	8
2299	7
2300	9
2301	6
2302	7
2303	5
2304	15
2305	11
2306	6
2307	7
2308	4
2309	5
2310	9
2311	15
2312	7
2313	8
2314	11
2315	11
2316	5
2317	8
2318	10
2319	7
2320	4
2321	6
2322	8
2323	11
2324	8
2325	8
2326	3
2327	8
2328	6
2329	5
2330	6
2331	7
2332	6
2333	2
2334	9
2335	5
2336	6
2337	10
2338	6
2339	10
2340	5
2341	6
2342	7
2343	9
2344	4
2345	9
2346	10
2347	5
2348	10
2349	13
2350	11
2351	6
2352	10
2353	8
2354	9
2355	6
2356	6
2357	7
2358	6
2359	5
2360	7
2361	2
2362	6
2363	6
2364	6
2365	5
2366	13
2367	4
2368	9
2369	6
2370	6
2371	8
2372	2
2373	5
2374	10
2375	7
2376	6
2377	8
2378	10
2379	7
2380	3
2381	9
2382	6
2383	3
2384	2
2385	6
2386	7
2387	10
2388	2
2389	7
2390	6
2391	4
2392	10
2393	1
2394	6
2395	11
2396	8
2397	12
2398	6
2399	12
2400	5
2401	6
2402	1
2403	3
2404	8
2405	4
2406	9
2407	5
2408	3
2409	7
2410	13
2411	7
2412	7
2413	4
2414	6
2415	5
2416	8
2417	9
2418	13
2419	6
2420	5
2421	6
2422	5
2423	5
2424	7
2425	8
2426	10
2427	3
2428	10
2429	8
2430	6
2431	3
2432	7
2433	13
2434	8
2435	5
2436	9
2437	3
2438	3
2439	3
2440	5
2441	2
2442	10
2443	4
2444	4
2445	7
2446	7
2447	4
2448	7
2449	4
2450	3
2451	4
2452	6
2453	7
2454	6
2455	6
2456	6
2457	10
2458	6
2459	9
2460	4
2461	6
2462	9
2463	10
2464	7
2465	3
2466	5
2467	6
2468	10
2469	6
2470	4
2471	6
2472	4
2473	10
2474	8
2475	6
2476	5
2477	13
2478	6
2479	13
2480	14
2481	5
2482	4
2483	10
2484	5
2485	9
2486	7
2487	8
2488	11
2489	5
2490	6
2491	7
2492	9
2493	4
2494	4
2495	8
2496	5
2497	9
2498	11
2499	6
2500	3
2501	4
2502	9
2503	10
2504	6
2505	5
2506	9
2507	6
2508	6
2509	4
2510	8
2511	2
2512	6
2513	11
2514	8
2515	5
2516	4
2517	8
2518	5
2519	11
2520	3
2521	6
2522	5
2523	13
2524	13
2525	8
2526	10
2527	5
2528	7
2529	5
2530	5
2531	6
2532	7
2533	7
2534	3
2535	9
2536	5
2537	7
2538	10
2539	7
2540	11
2541	5
2542	6
2543	8
2544	8
2545	5
2546	9
2547	5
2548	8
2549	9
2550	7
2551	9
2552	8
2553	4
2554	11
2555	3
2556	5
2557	8
2558	3
2559	3
2560	4
2561	5
2562	7
2563	7
2564	8
2565	5
2566	16
2567	9
2568	10
2569	5
2570	9
2571	4
2572	6
2573	4
2574	7
2575	9
2576	11
2577	5
2578	4
2579	6
2580	2
2581	3
2582	7
2583	7
2584	5
2585	8
2586	11
2587	7
2588	5
2589	4
2590	8
2591	6
2592	5
2593	6
2594	7
2595	5
2596	9
2597	6
2598	11
2599	3
2600	7
2601	4
2602	4
2603	10
2604	6
2605	11
2606	6
2607	4
2608	6
2609	9
2610	8
2611	5
2612	3
2613	5
2614	7
2615	7
2616	6
2617	4
2618	8
2619	7
2620	9
2621	7
2622	7
2623	6
2624	5
2625	0
2626	7
2627	7
2628	9
2629	6
2630	2
2631	9
2632	8
2633	13
2634	5
2635	6
2636	2
2637	3
2638	7
2639	6
2640	3
2641	6
2642	4
2643	7
2644	6
2645	3
2646	7
2647	3
2648	6
2649	2
2650	5
2651	5
2652	8
2653	5
2654	9
2655	4
2656	4
2657	5
2658	7
2659	6
2660	4
2661	6
2662	6
2663	4
2664	7
2665	6
2666	5
2667	6
2668	6
2669	5
2670	9
2671	7
2672	8
2673	5
2674	9
2675	6
2676	7
2677	4
2678	10
2679	5
2680	5
2681	3
2682	2
2683	4
2684	6
2685	6
2686	4
2687	5
2688	13
2689	4
2690	9
2691	3
2692	3
2693	6
2694	7
2695	3
2696	8
2697	2
2698	3
2699	3
2700	6
2701	4
2702	5
2703	3
2704	8
2705	2
2706	2
2707	3
2708	8
2709	4
2710	2
2711	3
2712	4
2713	3
2714	6
2715	4
2716	4
2717	7
2718	3
2719	6
2720	5
2721	1
2722	4
2723	4
2724	6
2725	6
2726	5
2727	1
2728	9
2729	1
2730	6
2731	4
2732	1
2733	5
2734	11
2735	2
2736	9
2737	1
2738	1
2739	7
2740	3
2741	2
2742	5
2743	3
2744	3
2745	5
2746	7
2747	3
2748	4
2749	4
2750	5
2751	5
2752	6
2753	3
2754	5
2755	5
2756	4
2757	1
2758	1
2759	3
2760	3
2761	1
2762	5
2763	6
2764	5
2765	3
2766	2
2767	2
2768	3
2769	3
2770	3
2771	4
2772	2
2773	3
2774	4
2775	3
2776	2
2777	2
2778	2
2779	1
2780	3
2781	1
2782	4
2783	4
2784	2
2785	6
2786	5
2787	4
2788	0
2789	3
2790	4
2791	2
2792	6
2793	3
2794	4
2795	1
2796	3
2797	4
2798	4
2799	4
2800	1
2801	1
2802	5
2803	4
2804	0
2805	3
2806	4
2807	6
2808	5
2809	3
2810	5
2811	4
2812	5
2813	5
2814	1
2815	3
2816	3
2817	3
2818	2
2819	3
2820	4
2821	2
2822	1
2823	2
2824	4
2825	3
2826	3
2827	3
2828	2
2829	4
2830	4
2831	1
2832	3
2833	6
2834	5
2835	3
2836	3
2837	3
2838	3
2839	5
2840	4
2841	3
2842	3
2843	2
2844	2
2845	6
2846	3
2847	7
2848	7
2849	4
2850	4
2851	2
2852	1
2853	2
2854	0
2855	1
2856	3
2857	4
2858	5
2859	2
2860	3
2861	4
2862	3
2863	3
2864	3
2865	1
2866	1
2867	2
2868	2
2869	2
2870	5
2871	4
2872	1
2873	2
2874	4
2875	1
2876	5
2877	2
2878	4
2879	7
2880	1
2881	3
2882	1
2883	4
2884	3
2885	2
2886	3
2887	2
2888	6
2889	4
2890	0
2891	2
2892	2
2893	2
2894	0
2895	9
2896	4
2897	1
2898	4
2899	5
2900	3
2901	2
2902	2
2903	3
2904	2
2905	2
2906	5
2907	1
2908	3
2909	2
2910	0
2911	6
2912	6
2913	2
2914	4
2915	1
2916	7
2917	1
2918	0
2919	3
2920	1
2921	2
2922	2
2923	2
2924	2
2925	1
2926	3
2927	3
2928	3
2929	3
2930	4
2931	5
2932	0
2933	3
2934	1
2935	4
2936	5
2937	1
2938	1
2939	2
2940	5
2941	4
2942	3
2943	0
2944	3
2945	2
2946	6
2947	1
2948	3
2949	2
2950	3
2951	2
2952	1
2953	2
2954	3
2955	0
2956	2
2957	5
2958	5
2959	1
2960	2
2961	0
2962	2
2963	3
2964	0
2965	4
2966	1
2967	3
2968	0
2969	1
2970	3
2971	2
2972	4
2973	4
2974	3
2975	0
2976	1
2977	4
2978	1
2979	3
2980	1
2981	3
2982	2
2983	3
2984	4
2985	1
2986	0
2987	5
2988	2
2989	2
2990	1
2991	2
2992	2
2993	3
2994	3
2995	3
2996	1
2997	4
2998	5
2999	4
3000	2
3001	2
3002	4
3003	2
3004	2
3005	1
3006	2
3007	0
3008	1
3009	2
3010	1
3011	1
3012	0
3013	2
3014	2
3015	2
3016	0
3017	1
3018	1
3019	1
3020	2
3021	3
3022	4
3023	0
3024	2
3025	1
3026	1
3027	0
3028	1
3029	3
3030	4
3031	4
3032	1
3033	3
3034	1
3035	1
3036	2
3037	2
3038	5
3039	1
3040	1
3041	2
3042	4
3043	1
3044	3
3045	3
3046	1
3047	2
3048	0
3049	4
3050	4
3051	0
3052	3
3053	0
3054	4
3055	1
3056	2
3057	2
3058	2
3059	5
3060	3
3061	5
3062	0
3063	0
3064	4
3065	4
3066	2
3067	2
3068	3
3069	1
3070	2
3071	3
3072	2
3073	1
3074	2
3075	2
3076	1
3077	4
3078	2
3079	6
3080	1
3081	2
3082	3
3083	0
3084	2
3085	1
3086	2
3087	1
3088	7
3089	1
3090	2
3091	0
3092	2
3093	4
3094	2
3095	2
3096	5
3097	2
3098	2
3099	2
3100	2
3101	0
3102	2
3103	0
3104	0
3105	2
3106	0
3107	5
3108	0
3109	0
3110	1
3111	2
3112	2
3113	3
3114	2
3115	2
3116	1
3117	1
3118	3
3119	4
3120	4
3121	3
3122	2
3123	1
3124	3
3125	3
3126	1
3127	1
3128	3
3129	3
3130	3
3131	0
3132	3
3133	2
3134	2
3135	1
3136	0
3137	2
3138	2
3139	4
3140	3
3141	1
3142	2
3143	0
3144	1
3145	0
3146	1
3147	4
3148	2
3149	6
3150	1
3151	0
3152	1
3153	2
3154	1
3155	0
3156	2
3157	2
3158	1
3159	3
3160	3
3161	3
3162	0
3163	2
3164	2
3165	1
3166	1
3167	2
3168	3
3169	1
3170	2
3171	1
3172	1
3173	2
3174	4
3175	1
3176	2
3177	2
3178	3
3179	3
3180	1
3181	2
3182	2
3183	0
3184	3
3185	2
3186	0
3187	5
3188	0
3189	0
3190	3
3191	6
3192	3
3193	1
3194	1
3195	0
3196	0
3197	3
3198	1
3199	2
3200	1
3201	0
3202	2
3203	3
3204	3
3205	6
3206	2
3207	1
3208	3
3209	4
3210	2
3211	1
3212	0
3213	3
3214	1
3215	2
3216	2
3217	3
3218	4
3219	1
3220	1
3221	1
3222	5
3223	2
3224	2
3225	2
3226	1
3227	0
3228	2
3229	3
3230	4
3231	1
3232	4
3233	2
3234	2
3235	4
3236	1
3237	2
3238	2
3239	4
3240	2
3241	0
3242	1
3243	0
3244	6
3245	0
3246	3
3247	2
3248	3
3249	4
3250	0
3251	3
3252	4
3253	2
3254	2
3255	1
3256	4
3257	5
3258	0
3259	2
3260	2
3261	1
3262	4
3263	1
3264	3
3265	2
3266	1
3267	3
3268	2
3269	1
3270	2
3271	1
3272	2
3273	1
3274	4
3275	6
3276	2
3277	0
3278	0
3279	2
3280	2
3281	2
3282	4
3283	3
3284	2
3285	1
3286	0
3287	1
3288	1
3289	0
3290	2
3291	0
3292	3
3293	1
3294	1
3295	4
3296	4
3297	2
3298	2
3299	3
3300	4
3301	0
3302	0
3303	2
3304	0
3305	0
3306	0
3307	2
3308	1
3309	1
3310	1
3311	1
3312	1
3313	1
3314	2
3315	0
3316	1
3317	2
3318	1
3319	1
3320	1
3321	2
3322	0
3323	1
3324	3
3325	0
3326	3
3327	3
3328	1
3329	4
3330	4
3331	1
3332	1
3333	0
3334	1
3335	4
3336	1
3337	1
3338	0
3339	2
3340	0
3341	0
3342	1
3343	1
3344	1
3345	0
3346	1
3347	2
3348	3
3349	0
3350	4
3351	2
3352	2
3353	1
3354	0
3355	2
3356	1
3357	2
3358	2
3359	1
3360	0
3361	4
3362	1
3363	1
3364	1
3365	1
3366	2
3367	2
3368	1
3369	0
3370	3
3371	2
3372	2
3373	0
3374	1
3375	0
3376	0
3377	2
3378	3
3379	2
3380	2
3381	1
3382	2
3383	0
3384	1
3385	0
3386	1
3387	1
3388	0
3389	3
3390	0
3391	0
3392	2
3393	0
3394	1
3395	1
3396	1
3397	2
3398	2
3399	2
3400	1
3401	1
3402	0
3403	2
3404	3
3405	1
3406	1
3407	2
3408	0
3409	3
3410	1
3411	1
3412	1
3413	3
3414	1
3415	3
3416	2
3417	1
3418	1
3419	4
3420	3
3421	1
3422	1
3423	4
3424	2
3425	2
3426	1
3427	0
3428	0
3429	1
3430	1
3431	3
3432	1
3433	3
3434	2
3435	1
3436	1
3437	1
3438	2
3439	1
3440	3
3441	1
3442	3
3443	6
3444	1
3445	3
3446	0
3447	0
3448	4
3449	1
3450	1
3451	2
3452	3
3453	3
3454	4
3455	2
3456	0
3457	0
3458	0
3459	2
3460	1
3461	1
3462	2
3463	3
3464	2
3465	4
3466	0
3467	1
3468	5
3469	3
3470	2
3471	1
3472	2
3473	1
3474	2
3475	0
3476	1
3477	0
3478	4
3479	3
3480	1
3481	3
3482	0
3483	3
3484	0
3485	3
3486	2
3487	2
3488	2
3489	0
3490	0
3491	4
3492	2
3493	1
3494	1
3495	2
3496	0
3497	2
3498	1
3499	1
3500	2
3501	1
3502	1
3503	4
3504	1
3505	1
3506	1
3507	1
3508	3
3509	3
3510	2
3511	0
3512	1
3513	1
3514	0
3515	3
3516	1
3517	1
3518	4
3519	0
3520	0
3521	3
3522	4
3523	7
3524	0
3525	0
3526	0
3527	2
3528	3
3529	5
3530	1
3531	1
3532	2
3533	2
3534	0
3535	0
3536	2
3537	5
3538	2
3539	3
3540	2
3541	4
3542	2
3543	0
3544	0
3545	1
3546	1
3547	3
3548	2
3549	0
3550	1
3551	1
3552	1
3553	2
3554	2
3555	1
3556	4
3557	2
3558	4
3559	4
3560	2
3561	3
3562	2
3563	2
3564	1
3565	2
3566	1
3567	1
3568	1
3569	2
3570	0
3571	3
3572	0
3573	3
3574	1
3575	1
3576	2
3577	0
3578	1
3579	2
3580	1
3581	1
3582	1
3583	1
3584	1
3585	1
3586	2
3587	3
3588	0
3589	2
3590	0
3591	1
3592	2
3593	2
3594	2
3595	2
3596	2
3597	3
3598	0
3599	2
3600	2
3601	2
3602	0
3603	4
3604	2
3605	3
3606	3
3607	1
3608	3
3609	2
3610	1
3611	2
3612	3
3613	2
3614	3
3615	3
3616	2
3617	1
3618	0
3619	1
3620	3
3621	3
3622	2
3623	2
3624	4
3625	2
3626	2
3627	2
3628	0
3629	1
3630	0
3631	2
3632	1
3633	1
3634	1
3635	3
3636	2
3637	0
3638	3
3639	1
3640	2
3641	0
3642	2
3643	2
3644	3
3645	0
3646	2
3647	2
3648	5
3649	1
3650	0
3651	2
3652	4
3653	1
3654	4
3655	2
3656	3
3657	2
3658	1
3659	0
3660	1
3661	2
3662	2
3663	2
3664	2
3665	5
3666	1
3667	3
3668	4
3669	0
3670	3
3671	3
3672	0
3673	2
3674	3
3675	3
3676	1
3677	1
3678	0
3679	1
3680	2
3681	1
3682	1
3683	3
3684	3
3685	0
3686	1
3687	1
3688	4
3689	2
3690	0
3691	3
3692	2
3693	0
3694	2
3695	4
3696	2
3697	1
3698	1
3699	1
3700	1
3701	0
3702	0
3703	2
3704	1
3705	2
3706	0
3707	2
3708	2
3709	1
3710	1
3711	1
3712	1
3713	2
3714	4
3715	0
3716	5
3717	0
3718	1
3719	1
3720	3
3721	0
3722	1
3723	2
3724	1
3725	2
3726	2
3727	4
3728	1
3729	2
3730	2
3731	0
3732	3
3733	1
3734	3
3735	1
3736	8
3737	1
3738	3
3739	2
3740	1
3741	0
3742	1
3743	2
3744	4
3745	1
3746	0
3747	2
3748	0
3749	1
3750	4
3751	2
3752	1
3753	1
3754	2
3755	1
3756	0
3757	3
3758	1
3759	1
3760	1
3761	1
3762	1
3763	1
3764	0
3765	1
3766	0
3767	1
3768	3
3769	3
3770	0
3771	2
3772	1
3773	0
3774	1
3775	0
3776	3
3777	1
3778	1
3779	2
3780	3
3781	1
3782	3
3783	2
3784	4
3785	2
3786	0
3787	1
3788	1
3789	1
3790	0
3791	2
3792	2
3793	2
3794	4
3795	1
3796	1
3797	2
3798	1
3799	1
3800	2
3801	0
3802	3
3803	2
3804	4
3805	1
3806	1
3807	1
3808	3
3809	0
3810	1
3811	2
3812	2
3813	1
3814	0
3815	2
3816	1
3817	1
3818	4
3819	2
3820	2
3821	0
3822	1
3823	1
3824	1
3825	2
3826	1
3827	2
3828	2
3829	1
3830	0
3831	2
3832	3
3833	2
3834	0
3835	0
3836	1
3837	0
3838	1
3839	3
3840	1
3841	3
3842	2
3843	2
3844	1
3845	0
3846	0
3847	0
3848	0
3849	0
3850	0
3851	0
3852	0
3853	0
3854	0
3855	0
3856	0
3857	0
3858	0
3859	0
3860	0
3861	0
3862	0
3863	0
3864	0
3865	0
3866	0
3867	0
3868	0
3869	0
3870	0
3871	0
3872	0
3873	0
3874	0
3875	0
3876	0
3877	0
3878	0
3879	0
3880	0
3881	0
3882	0
3883	0
3884	0
3885	0
3886	0
3887	0
3888	0
3889	0
3890	0
3891	0
3892	0
3893	0
3894	0
3895	0
3896	0
3897	0
3898	0
3899	0
3900	0
3901	0
3902	0
3903	0
3904	0
3905	0
3906	0
3907	0
3908	0
3909	0
3910	0
3911	0
3912	0
3913	0
3914	0
3915	0
3916	0
3917	0
3918	0
3919	0
3920	0
3921	0
3922	0
3923	0
3924	0
3925	0
3926	0
3927	0
3928	0
3929	0
3930	0
3931	0
3932	0
3933	0
3934	0
3935	0
3936	0
3937	0
3938	0
3939	0
3940	0
3941	0
3942	0
3943	0
3944	0
3945	0
3946	0
3947	0
3948	0
3949	0
3950	0
3951	0
3952	0
3953	0
3954	0
3955	0
3956	0
3957	0
3958	0
3959	0
3960	0
3961	0
3962	0
3963	0
3964	0
3965	0
3966	0
3967	0
3968	0
3969	0
3970	0
3971	0
3972	0
3973	0
3974	0
3975	0
3976	0
3977	0
3978	0
3979	0
3980	0
3981	0
3982	0
3983	0
3984	0
3985	0
3986	0
3987	0
3988	0
3989	0
3990	0
3991	0
3992	0
3993	0
3994	0
3995	0
3996	0
3997	0
3998	0
3999	0
4000	0
4001	0
4002	0
4003	0
4004	0
4005	0
4006	0
4007	0
4008	0
4009	0
4010	0
4011	0
4012	0
4013	0
4014	0
4015	0
4016	0
4017	0
4018	0
4019	0
4020	0
4021	0
4022	0
4023	0
4024	0
4025	0
4026	0
4027	0
4028	0
4029	0
4030	0
4031	0
4032	0
4033	0
4034	0
4035	0
4036	0
4037	0
4038	0
4039	0
4040	0
4041	0
4042	0
4043	0
4044	0
4045	0
4046	0
4047	0
4048	0
4049	0
4050	0
4051	0
4052	0
4053	0
4054	0
4055	0
4056	0
4057	0
4058	0
4059	0
4060	0
4061	0
4062	0
4063	0
4064	0
4065	0
4066	0
4067	0
4068	0
4069	0
4070	0
4071	0
4072	0
4073	0
4074	0
4075	0
4076	0
4077	0
4078	0
4079	0
4080	0
4081	0
4082	0
4083	0
4084	0
4085	0
4086	0
4087	0
4088	0
4089	0
4090	0
4091	0
4092	0
4093	0
4094	0
4095	0
4096	0
