Item name: Decay

Real time: 362.06
Live time: 155.88

Comment: 


Chan	Data
1	0
2	0
3	0
4	0
5	0
6	0
7	0
8	0
9	0
10	0
11	0
12	0
13	0
14	0
15	0
16	0
17	0
18	0
19	0
20	0
21	0
22	0
23	0
24	0
25	0
26	0
27	0
28	0
29	0
30	0
31	0
32	0
33	0
34	0
35	0
36	0
37	0
38	0
39	0
40	0
41	0
42	0
43	0
44	0
45	0
46	0
47	0
48	0
49	0
50	0
51	0
52	0
53	0
54	0
55	0
56	0
57	0
58	0
59	0
60	0
61	0
62	0
63	0
64	0
65	0
66	0
67	0
68	0
69	0
70	0
71	0
72	0
73	0
74	0
75	0
76	0
77	0
78	0
79	0
80	0
81	0
82	0
83	0
84	0
85	0
86	0
87	0
88	0
89	0
90	0
91	0
92	0
93	0
94	0
95	0
96	0
97	1
98	0
99	0
100	2
101	2
102	1
103	4
104	5
105	13
106	12
107	10
108	8
109	13
110	10
111	14
112	10
113	6
114	8
115	7
116	16
117	11
118	12
119	11
120	12
121	9
122	8
123	12
124	14
125	13
126	6
127	15
128	12
129	8
130	14
131	10
132	11
133	13
134	12
135	6
136	10
137	11
138	15
139	10
140	11
141	11
142	16
143	16
144	8
145	10
146	16
147	16
148	15
149	11
150	11
151	13
152	12
153	13
154	11
155	10
156	10
157	10
158	9
159	7
160	17
161	12
162	16
163	6
164	7
165	15
166	12
167	17
168	11
169	6
170	11
171	6
172	7
173	12
174	13
175	12
176	8
177	15
178	7
179	7
180	11
181	6
182	14
183	12
184	11
185	11
186	10
187	6
188	13
189	16
190	9
191	8
192	11
193	9
194	6
195	15
196	14
197	10
198	19
199	14
200	19
201	20
202	12
203	11
204	10
205	19
206	12
207	13
208	11
209	18
210	6
211	13
212	10
213	7
214	9
215	9
216	15
217	14
218	10
219	8
220	9
221	12
222	10
223	15
224	10
225	7
226	4
227	9
228	6
229	8
230	10
231	9
232	8
233	17
234	10
235	16
236	13
237	17
238	10
239	9
240	7
241	7
242	9
243	9
244	6
245	14
246	7
247	9
248	7
249	10
250	4
251	7
252	13
253	14
254	10
255	9
256	11
257	14
258	11
259	7
260	9
261	4
262	15
263	7
264	10
265	7
266	8
267	12
268	13
269	5
270	16
271	10
272	9
273	12
274	12
275	10
276	13
277	9
278	11
279	10
280	13
281	8
282	10
283	13
284	4
285	7
286	5
287	12
288	12
289	11
290	9
291	7
292	6
293	9
294	16
295	12
296	5
297	9
298	12
299	9
300	5
301	7
302	16
303	10
304	7
305	9
306	5
307	11
308	7
309	17
310	19
311	10
312	15
313	17
314	8
315	6
316	18
317	5
318	6
319	5
320	6
321	12
322	14
323	6
324	8
325	15
326	12
327	19
328	13
329	14
330	7
331	10
332	10
333	9
334	6
335	11
336	12
337	16
338	13
339	3
340	10
341	10
342	12
343	8
344	15
345	16
346	4
347	12
348	9
349	17
350	9
351	7
352	8
353	13
354	12
355	12
356	7
357	11
358	11
359	6
360	13
361	7
362	10
363	9
364	12
365	10
366	12
367	5
368	15
369	8
370	8
371	8
372	12
373	13
374	13
375	14
376	8
377	11
378	14
379	9
380	9
381	22
382	17
383	12
384	12
385	14
386	9
387	8
388	8
389	10
390	11
391	10
392	6
393	11
394	11
395	6
396	14
397	12
398	18
399	15
400	9
401	7
402	12
403	13
404	12
405	13
406	18
407	12
408	10
409	10
410	11
411	9
412	14
413	9
414	14
415	8
416	10
417	9
418	8
419	7
420	11
421	9
422	10
423	11
424	9
425	13
426	15
427	13
428	8
429	10
430	12
431	11
432	9
433	14
434	16
435	10
436	7
437	14
438	11
439	19
440	10
441	11
442	10
443	12
444	11
445	0
446	17
447	15
448	8
449	18
450	12
451	12
452	4
453	14
454	13
455	12
456	11
457	9
458	13
459	7
460	8
461	13
462	13
463	9
464	4
465	13
466	8
467	14
468	10
469	16
470	8
471	11
472	16
473	16
474	10
475	23
476	7
477	9
478	8
479	14
480	16
481	13
482	17
483	16
484	17
485	22
486	17
487	17
488	25
489	31
490	34
491	38
492	42
493	40
494	50
495	64
496	82
497	82
498	107
499	141
500	172
501	223
502	264
503	346
504	402
505	551
506	669
507	897
508	1174
509	1468
510	1925
511	2526
512	3055
513	3909
514	4782
515	5984
516	7139
517	8508
518	10325
519	12182
520	14268
521	16494
522	18834
523	20995
524	23572
525	25846
526	28112
527	30436
528	32562
529	34599
530	36226
531	38396
532	39413
533	41494
534	42306
535	43167
536	43949
537	44728
538	45888
539	46431
540	46486
541	47028
542	47297
543	47688
544	48154
545	48456
546	48613
547	48798
548	49141
549	48998
550	49678
551	49198
552	49572
553	49362
554	49585
555	49678
556	49832
557	49707
558	49715
559	49783
560	49531
561	50010
562	49752
563	49531
564	49294
565	48928
566	49724
567	48900
568	49211
569	48798
570	49279
571	49035
572	48549
573	48627
574	48289
575	48485
576	47563
577	48268
578	47996
579	47736
580	47872
581	47199
582	47414
583	47136
584	47574
585	47076
586	47048
587	46480
588	46540
589	46490
590	46239
591	46233
592	46032
593	45952
594	45479
595	45764
596	45143
597	44966
598	44792
599	44695
600	45011
601	44595
602	44923
603	44336
604	44341
605	44119
606	44146
607	43707
608	43721
609	44405
610	43732
611	43157
612	43294
613	43079
614	42702
615	43156
616	42805
617	42870
618	42385
619	42571
620	42127
621	42167
622	41922
623	41605
624	41744
625	41979
626	41564
627	41529
628	41189
629	41249
630	40950
631	40681
632	40567
633	40366
634	40252
635	39991
636	40059
637	39864
638	39802
639	39564
640	39240
641	39363
642	39157
643	38910
644	39070
645	38760
646	38908
647	38440
648	38273
649	38416
650	38196
651	38028
652	37736
653	37428
654	37502
655	37217
656	37096
657	37093
658	36754
659	36791
660	36718
661	36541
662	36426
663	36285
664	35923
665	36155
666	35909
667	36044
668	35440
669	35342
670	35465
671	35190
672	34945
673	34584
674	35079
675	34694
676	34558
677	34332
678	34666
679	34561
680	34284
681	34150
682	34117
683	33819
684	33491
685	33512
686	33483
687	33607
688	33400
689	33178
690	32996
691	33119
692	33044
693	33083
694	32538
695	32596
696	32363
697	32011
698	32114
699	31903
700	32010
701	31960
702	31754
703	31799
704	31386
705	31385
706	31408
707	31269
708	31310
709	30914
710	30711
711	30678
712	30976
713	30512
714	30706
715	30686
716	30305
717	30212
718	30313
719	30103
720	29810
721	29958
722	29917
723	29307
724	29724
725	29112
726	29595
727	29368
728	29333
729	29042
730	28917
731	28644
732	28761
733	28819
734	28789
735	28379
736	28429
737	28061
738	27720
739	27868
740	27980
741	27784
742	27856
743	27701
744	27615
745	27598
746	27595
747	27188
748	27035
749	27225
750	26928
751	26753
752	26700
753	26682
754	26727
755	26515
756	26360
757	26206
758	26034
759	26364
760	26220
761	26031
762	26070
763	25800
764	25369
765	25486
766	25319
767	25510
768	25481
769	25605
770	25040
771	25453
772	25031
773	24948
774	24814
775	24612
776	24437
777	24773
778	24466
779	24152
780	24348
781	24712
782	24382
783	23967
784	23919
785	23718
786	23732
787	23752
788	23590
789	23775
790	23586
791	23445
792	23265
793	23554
794	23564
795	23117
796	22989
797	23153
798	22977
799	23146
800	22917
801	22866
802	22555
803	22487
804	22696
805	22495
806	22254
807	22110
808	22178
809	22147
810	22085
811	21949
812	22217
813	21703
814	21693
815	21624
816	21563
817	21712
818	21549
819	21513
820	21645
821	21546
822	21065
823	21026
824	21032
825	21145
826	21257
827	20735
828	20925
829	20568
830	20594
831	20848
832	20857
833	20702
834	20401
835	20375
836	20652
837	20142
838	20245
839	20025
840	20048
841	19691
842	19942
843	19803
844	19914
845	19623
846	19651
847	19624
848	19658
849	19228
850	19199
851	19155
852	19204
853	18998
854	19213
855	18903
856	19014
857	18787
858	18928
859	18613
860	18789
861	18515
862	18544
863	18591
864	18412
865	18315
866	18051
867	18312
868	18388
869	18045
870	18302
871	18129
872	18051
873	17870
874	17602
875	17648
876	17659
877	17627
878	17780
879	17364
880	17409
881	17685
882	17503
883	17345
884	17214
885	16967
886	17100
887	16901
888	17062
889	16912
890	16705
891	16902
892	16670
893	16615
894	16784
895	16581
896	16686
897	16432
898	16344
899	16137
900	16155
901	16274
902	16184
903	16372
904	16144
905	16067
906	16020
907	15874
908	15776
909	15574
910	15828
911	15694
912	15793
913	15539
914	15603
915	15560
916	15688
917	15249
918	15288
919	15351
920	15210
921	15283
922	15220
923	14887
924	15033
925	15099
926	14913
927	15107
928	14677
929	14741
930	14797
931	14797
932	14829
933	14599
934	14613
935	14496
936	14545
937	14411
938	14276
939	14560
940	14327
941	14394
942	14074
943	14067
944	14052
945	14195
946	14120
947	14001
948	14079
949	13828
950	13929
951	13695
952	13544
953	13842
954	13642
955	13585
956	13346
957	13535
958	13528
959	13526
960	13286
961	13537
962	13179
963	13318
964	13095
965	13136
966	13047
967	12880
968	13120
969	12990
970	12724
971	12876
972	12723
973	12876
974	12487
975	12573
976	12640
977	12569
978	12469
979	12357
980	12370
981	12359
982	12495
983	12418
984	12077
985	12170
986	12225
987	12072
988	12103
989	11943
990	11963
991	11733
992	11769
993	11836
994	11780
995	11945
996	11716
997	11693
998	11655
999	11607
1000	11479
1001	11577
1002	11619
1003	11464
1004	11496
1005	11351
1006	11252
1007	11163
1008	11179
1009	11198
1010	11252
1011	10966
1012	11115
1013	11086
1014	10970
1015	10898
1016	10935
1017	10893
1018	10895
1019	10816
1020	10832
1021	10810
1022	10790
1023	10704
1024	10717
1025	10723
1026	10465
1027	10401
1028	10634
1029	10463
1030	10327
1031	10516
1032	10325
1033	10413
1034	10524
1035	10268
1036	10302
1037	10227
1038	10222
1039	10235
1040	10321
1041	10153
1042	10078
1043	10092
1044	9905
1045	9838
1046	9978
1047	9960
1048	9743
1049	9953
1050	9817
1051	10005
1052	9854
1053	9530
1054	9790
1055	9627
1056	9737
1057	9471
1058	9474
1059	9639
1060	9420
1061	9445
1062	9486
1063	9576
1064	9303
1065	9233
1066	9254
1067	9287
1068	9265
1069	9393
1070	9294
1071	9107
1072	8905
1073	9076
1074	9149
1075	9093
1076	8863
1077	8889
1078	8998
1079	8981
1080	8821
1081	8600
1082	8829
1083	8630
1084	8745
1085	8679
1086	8626
1087	8670
1088	8449
1089	8619
1090	8420
1091	8609
1092	8538
1093	8478
1094	8383
1095	8216
1096	8321
1097	8514
1098	8348
1099	8249
1100	8029
1101	8177
1102	8368
1103	8050
1104	8229
1105	8127
1106	8116
1107	8100
1108	8219
1109	7961
1110	8061
1111	7961
1112	7781
1113	7804
1114	7937
1115	7794
1116	7668
1117	7737
1118	7754
1119	7757
1120	7734
1121	7654
1122	7564
1123	7408
1124	7723
1125	7627
1126	7556
1127	7456
1128	7398
1129	7322
1130	7438
1131	7338
1132	7315
1133	7353
1134	7388
1135	7267
1136	7258
1137	7282
1138	7259
1139	7131
1140	7134
1141	7247
1142	7121
1143	7148
1144	6941
1145	7016
1146	7158
1147	6962
1148	7075
1149	6832
1150	6921
1151	7043
1152	7021
1153	6913
1154	6757
1155	6960
1156	6682
1157	6800
1158	6631
1159	6756
1160	6721
1161	6740
1162	6756
1163	6760
1164	6746
1165	6759
1166	6598
1167	6648
1168	6599
1169	6608
1170	6611
1171	6459
1172	6520
1173	6455
1174	6503
1175	6391
1176	6545
1177	6534
1178	6330
1179	6282
1180	6338
1181	6286
1182	6370
1183	6304
1184	6189
1185	6135
1186	6241
1187	6116
1188	6225
1189	6187
1190	6204
1191	6120
1192	6062
1193	6045
1194	5983
1195	5956
1196	6067
1197	5909
1198	6125
1199	5939
1200	5991
1201	5793
1202	5880
1203	5969
1204	5832
1205	5930
1206	5801
1207	5834
1208	5677
1209	5691
1210	5864
1211	5733
1212	5685
1213	5665
1214	5678
1215	5481
1216	5587
1217	5602
1218	5552
1219	5557
1220	5575
1221	5560
1222	5519
1223	5498
1224	5494
1225	5462
1226	5463
1227	5468
1228	5459
1229	5415
1230	5391
1231	5303
1232	5290
1233	5276
1234	5289
1235	5184
1236	5210
1237	5241
1238	5242
1239	5107
1240	4991
1241	5264
1242	5166
1243	5022
1244	5090
1245	5149
1246	5039
1247	5066
1248	5024
1249	5105
1250	5058
1251	4942
1252	5074
1253	4934
1254	4955
1255	5007
1256	4841
1257	4688
1258	4829
1259	4810
1260	4756
1261	4777
1262	4766
1263	4846
1264	4814
1265	4713
1266	4851
1267	4751
1268	4843
1269	4812
1270	4789
1271	4721
1272	4730
1273	4629
1274	4667
1275	4610
1276	4775
1277	4693
1278	4582
1279	4592
1280	4489
1281	4538
1282	4568
1283	4571
1284	4402
1285	4387
1286	4416
1287	4397
1288	4481
1289	4401
1290	4411
1291	4399
1292	4318
1293	4410
1294	4399
1295	4242
1296	4283
1297	4277
1298	4300
1299	4264
1300	4256
1301	4222
1302	4212
1303	4087
1304	4177
1305	4220
1306	4120
1307	4120
1308	4103
1309	4188
1310	4107
1311	4130
1312	4084
1313	4176
1314	3969
1315	4080
1316	4069
1317	3957
1318	4038
1319	3975
1320	3963
1321	4067
1322	3977
1323	3943
1324	3998
1325	3988
1326	3835
1327	3908
1328	3981
1329	3818
1330	3826
1331	3904
1332	3741
1333	3856
1334	3678
1335	3814
1336	3809
1337	3706
1338	3703
1339	3718
1340	3857
1341	3636
1342	3595
1343	3759
1344	3670
1345	3661
1346	3554
1347	3701
1348	3690
1349	3612
1350	3625
1351	3560
1352	3491
1353	3467
1354	3594
1355	3555
1356	3559
1357	3635
1358	3515
1359	3467
1360	3455
1361	3496
1362	3447
1363	3507
1364	3439
1365	3415
1366	3371
1367	3467
1368	3483
1369	3325
1370	3396
1371	3392
1372	3328
1373	3247
1374	3388
1375	3304
1376	3348
1377	3223
1378	3224
1379	3254
1380	3159
1381	3211
1382	3211
1383	3213
1384	3140
1385	3192
1386	3225
1387	3099
1388	3212
1389	3169
1390	3040
1391	3198
1392	3028
1393	3209
1394	3127
1395	3079
1396	3098
1397	3008
1398	3005
1399	3136
1400	3049
1401	3074
1402	2968
1403	3045
1404	3056
1405	2890
1406	3070
1407	3015
1408	3032
1409	3072
1410	2873
1411	2953
1412	2821
1413	2941
1414	2845
1415	2953
1416	2868
1417	2855
1418	2984
1419	2898
1420	2803
1421	2838
1422	2844
1423	2659
1424	2758
1425	2853
1426	2693
1427	2715
1428	2820
1429	2777
1430	2652
1431	2692
1432	2677
1433	2666
1434	2617
1435	2599
1436	2622
1437	2679
1438	2755
1439	2628
1440	2641
1441	2656
1442	2561
1443	2700
1444	2566
1445	2615
1446	2676
1447	2671
1448	2661
1449	2563
1450	2514
1451	2589
1452	2560
1453	2553
1454	2589
1455	2590
1456	2488
1457	2572
1458	2502
1459	2460
1460	2455
1461	2522
1462	2506
1463	2387
1464	2427
1465	2433
1466	2396
1467	2522
1468	2340
1469	2398
1470	2424
1471	2415
1472	2389
1473	2448
1474	2404
1475	2397
1476	2425
1477	2308
1478	2442
1479	2417
1480	2316
1481	2322
1482	2322
1483	2360
1484	2283
1485	2225
1486	2240
1487	2264
1488	2266
1489	2380
1490	2283
1491	2255
1492	2243
1493	2198
1494	2197
1495	2168
1496	2136
1497	2219
1498	2195
1499	2284
1500	2254
1501	2178
1502	2155
1503	2118
1504	2220
1505	2090
1506	2220
1507	2140
1508	2147
1509	2095
1510	2103
1511	2093
1512	2089
1513	2090
1514	2131
1515	2095
1516	2007
1517	2057
1518	2024
1519	2034
1520	2104
1521	2047
1522	2051
1523	2018
1524	1999
1525	2018
1526	2037
1527	2046
1528	1984
1529	1988
1530	1981
1531	1926
1532	1981
1533	1908
1534	1987
1535	1929
1536	1927
1537	1936
1538	1868
1539	1940
1540	1845
1541	1890
1542	1890
1543	1888
1544	1904
1545	1930
1546	1888
1547	1909
1548	1933
1549	1820
1550	1747
1551	1966
1552	1817
1553	1837
1554	1851
1555	1852
1556	1747
1557	1792
1558	1822
1559	1829
1560	1833
1561	1847
1562	1841
1563	1736
1564	1733
1565	1756
1566	1706
1567	1712
1568	1719
1569	1756
1570	1744
1571	1793
1572	1709
1573	1732
1574	1704
1575	1694
1576	1765
1577	1640
1578	1667
1579	1665
1580	1684
1581	1673
1582	1712
1583	1660
1584	1697
1585	1597
1586	1654
1587	1670
1588	1710
1589	1597
1590	1588
1591	1601
1592	1491
1593	1637
1594	1534
1595	1624
1596	1590
1597	1581
1598	1546
1599	1535
1600	1493
1601	1554
1602	1538
1603	1552
1604	1518
1605	1514
1606	1541
1607	1546
1608	1490
1609	1553
1610	1493
1611	1525
1612	1552
1613	1457
1614	1513
1615	1531
1616	1521
1617	1544
1618	1485
1619	1418
1620	1539
1621	1517
1622	1440
1623	1507
1624	1424
1625	1447
1626	1451
1627	1438
1628	1419
1629	1411
1630	1379
1631	1397
1632	1333
1633	1481
1634	1355
1635	1447
1636	1427
1637	1351
1638	1402
1639	1448
1640	1374
1641	1421
1642	1348
1643	1416
1644	1342
1645	1348
1646	1440
1647	1261
1648	1323
1649	1317
1650	1314
1651	1289
1652	1330
1653	1310
1654	1290
1655	1311
1656	1277
1657	1303
1658	1260
1659	1315
1660	1325
1661	1266
1662	1263
1663	1291
1664	1268
1665	1234
1666	1279
1667	1298
1668	1251
1669	1200
1670	1268
1671	1279
1672	1172
1673	1247
1674	1238
1675	1242
1676	1216
1677	1236
1678	1221
1679	1169
1680	1187
1681	1184
1682	1185
1683	1164
1684	1170
1685	1228
1686	1106
1687	1135
1688	1172
1689	1149
1690	1190
1691	1130
1692	1193
1693	1124
1694	1130
1695	1179
1696	1141
1697	1088
1698	1190
1699	1098
1700	1129
1701	1086
1702	1102
1703	1169
1704	1090
1705	1120
1706	1120
1707	1119
1708	1142
1709	1114
1710	1067
1711	1140
1712	1121
1713	1182
1714	1072
1715	1073
1716	1100
1717	1045
1718	1037
1719	1076
1720	1070
1721	1093
1722	1074
1723	964
1724	1003
1725	1049
1726	1093
1727	1066
1728	1072
1729	998
1730	952
1731	1005
1732	1001
1733	1001
1734	1045
1735	996
1736	1050
1737	1018
1738	1014
1739	941
1740	1096
1741	1010
1742	943
1743	1028
1744	998
1745	995
1746	996
1747	983
1748	940
1749	979
1750	970
1751	974
1752	988
1753	957
1754	935
1755	928
1756	953
1757	933
1758	944
1759	950
1760	945
1761	928
1762	905
1763	853
1764	891
1765	972
1766	911
1767	825
1768	922
1769	865
1770	888
1771	856
1772	848
1773	853
1774	874
1775	910
1776	864
1777	885
1778	890
1779	876
1780	901
1781	847
1782	856
1783	842
1784	877
1785	845
1786	854
1787	862
1788	830
1789	866
1790	806
1791	826
1792	898
1793	866
1794	804
1795	815
1796	801
1797	855
1798	817
1799	853
1800	798
1801	846
1802	804
1803	785
1804	821
1805	797
1806	807
1807	793
1808	804
1809	836
1810	798
1811	762
1812	814
1813	765
1814	762
1815	770
1816	814
1817	744
1818	757
1819	801
1820	790
1821	715
1822	694
1823	795
1824	824
1825	730
1826	730
1827	734
1828	763
1829	774
1830	736
1831	769
1832	754
1833	709
1834	740
1835	728
1836	737
1837	700
1838	709
1839	697
1840	676
1841	655
1842	753
1843	717
1844	727
1845	709
1846	747
1847	690
1848	697
1849	738
1850	659
1851	692
1852	733
1853	672
1854	709
1855	662
1856	668
1857	682
1858	626
1859	679
1860	630
1861	678
1862	644
1863	674
1864	635
1865	680
1866	631
1867	643
1868	670
1869	667
1870	657
1871	620
1872	644
1873	649
1874	613
1875	653
1876	660
1877	620
1878	643
1879	643
1880	626
1881	632
1882	661
1883	654
1884	622
1885	636
1886	563
1887	616
1888	633
1889	581
1890	644
1891	584
1892	611
1893	646
1894	601
1895	615
1896	676
1897	631
1898	623
1899	628
1900	585
1901	537
1902	575
1903	589
1904	595
1905	580
1906	574
1907	576
1908	550
1909	532
1910	571
1911	554
1912	595
1913	560
1914	576
1915	552
1916	581
1917	542
1918	552
1919	545
1920	550
1921	575
1922	555
1923	558
1924	581
1925	618
1926	523
1927	517
1928	514
1929	539
1930	536
1931	546
1932	508
1933	550
1934	556
1935	552
1936	527
1937	522
1938	532
1939	532
1940	503
1941	519
1942	521
1943	513
1944	539
1945	510
1946	490
1947	496
1948	500
1949	503
1950	503
1951	465
1952	490
1953	488
1954	500
1955	537
1956	495
1957	480
1958	449
1959	492
1960	523
1961	498
1962	497
1963	481
1964	474
1965	459
1966	447
1967	466
1968	459
1969	480
1970	435
1971	470
1972	442
1973	486
1974	458
1975	478
1976	462
1977	439
1978	466
1979	503
1980	413
1981	444
1982	489
1983	474
1984	489
1985	419
1986	425
1987	468
1988	460
1989	448
1990	479
1991	437
1992	455
1993	402
1994	430
1995	424
1996	422
1997	442
1998	429
1999	458
2000	422
2001	413
2002	413
2003	395
2004	467
2005	392
2006	459
2007	403
2008	411
2009	459
2010	455
2011	408
2012	446
2013	442
2014	417
2015	423
2016	408
2017	408
2018	408
2019	390
2020	409
2021	368
2022	404
2023	397
2024	417
2025	384
2026	414
2027	374
2028	426
2029	415
2030	389
2031	394
2032	398
2033	392
2034	380
2035	403
2036	382
2037	405
2038	385
2039	382
2040	406
2041	375
2042	393
2043	373
2044	367
2045	360
2046	363
2047	416
2048	414
2049	391
2050	361
2051	387
2052	347
2053	360
2054	375
2055	410
2056	341
2057	376
2058	356
2059	370
2060	360
2061	359
2062	361
2063	334
2064	354
2065	366
2066	361
2067	371
2068	346
2069	331
2070	356
2071	360
2072	353
2073	344
2074	347
2075	357
2076	328
2077	365
2078	290
2079	312
2080	343
2081	334
2082	341
2083	367
2084	343
2085	372
2086	300
2087	333
2088	309
2089	341
2090	317
2091	295
2092	331
2093	337
2094	330
2095	343
2096	323
2097	335
2098	325
2099	332
2100	322
2101	360
2102	304
2103	319
2104	340
2105	320
2106	301
2107	318
2108	314
2109	280
2110	304
2111	310
2112	297
2113	342
2114	340
2115	294
2116	296
2117	313
2118	299
2119	316
2120	326
2121	310
2122	303
2123	321
2124	290
2125	300
2126	297
2127	301
2128	322
2129	323
2130	289
2131	287
2132	338
2133	321
2134	302
2135	319
2136	345
2137	319
2138	310
2139	335
2140	309
2141	289
2142	302
2143	320
2144	314
2145	311
2146	320
2147	294
2148	278
2149	305
2150	293
2151	295
2152	294
2153	280
2154	296
2155	308
2156	300
2157	292
2158	323
2159	294
2160	300
2161	273
2162	303
2163	296
2164	289
2165	326
2166	299
2167	292
2168	287
2169	315
2170	307
2171	259
2172	306
2173	280
2174	280
2175	303
2176	287
2177	295
2178	289
2179	279
2180	283
2181	302
2182	288
2183	279
2184	288
2185	299
2186	287
2187	294
2188	308
2189	288
2190	232
2191	269
2192	269
2193	254
2194	293
2195	275
2196	279
2197	278
2198	275
2199	256
2200	293
2201	286
2202	296
2203	296
2204	293
2205	266
2206	263
2207	265
2208	260
2209	258
2210	235
2211	255
2212	245
2213	257
2214	262
2215	264
2216	284
2217	289
2218	241
2219	251
2220	283
2221	274
2222	260
2223	245
2224	248
2225	291
2226	255
2227	266
2228	241
2229	229
2230	241
2231	279
2232	265
2233	269
2234	264
2235	256
2236	246
2237	233
2238	261
2239	272
2240	244
2241	287
2242	242
2243	258
2244	260
2245	255
2246	255
2247	251
2248	273
2249	253
2250	268
2251	256
2252	249
2253	239
2254	247
2255	249
2256	241
2257	250
2258	234
2259	243
2260	241
2261	245
2262	262
2263	234
2264	259
2265	231
2266	254
2267	262
2268	236
2269	207
2270	243
2271	239
2272	221
2273	247
2274	213
2275	256
2276	238
2277	235
2278	212
2279	247
2280	252
2281	218
2282	245
2283	213
2284	215
2285	209
2286	264
2287	219
2288	220
2289	234
2290	231
2291	212
2292	235
2293	219
2294	260
2295	228
2296	206
2297	231
2298	207
2299	206
2300	226
2301	232
2302	237
2303	243
2304	211
2305	191
2306	237
2307	199
2308	198
2309	214
2310	228
2311	261
2312	213
2313	234
2314	223
2315	202
2316	223
2317	213
2318	215
2319	213
2320	206
2321	231
2322	228
2323	221
2324	214
2325	183
2326	219
2327	203
2328	242
2329	205
2330	225
2331	211
2332	212
2333	204
2334	209
2335	191
2336	210
2337	215
2338	213
2339	208
2340	223
2341	191
2342	204
2343	188
2344	204
2345	198
2346	206
2347	212
2348	204
2349	189
2350	190
2351	188
2352	212
2353	198
2354	190
2355	205
2356	189
2357	191
2358	187
2359	186
2360	229
2361	221
2362	223
2363	180
2364	217
2365	183
2366	173
2367	198
2368	223
2369	192
2370	196
2371	193
2372	210
2373	187
2374	168
2375	197
2376	166
2377	178
2378	188
2379	170
2380	152
2381	212
2382	189
2383	162
2384	192
2385	201
2386	185
2387	177
2388	173
2389	204
2390	192
2391	186
2392	194
2393	169
2394	192
2395	176
2396	165
2397	191
2398	182
2399	188
2400	162
2401	209
2402	186
2403	177
2404	151
2405	157
2406	185
2407	192
2408	159
2409	189
2410	159
2411	152
2412	187
2413	199
2414	174
2415	164
2416	176
2417	193
2418	171
2419	167
2420	163
2421	151
2422	149
2423	168
2424	175
2425	159
2426	150
2427	171
2428	154
2429	158
2430	169
2431	171
2432	180
2433	144
2434	175
2435	159
2436	169
2437	182
2438	173
2439	161
2440	142
2441	180
2442	160
2443	158
2444	163
2445	154
2446	145
2447	169
2448	161
2449	160
2450	157
2451	176
2452	170
2453	151
2454	156
2455	150
2456	145
2457	160
2458	168
2459	156
2460	169
2461	139
2462	145
2463	169
2464	142
2465	146
2466	141
2467	128
2468	156
2469	147
2470	136
2471	149
2472	145
2473	163
2474	177
2475	161
2476	154
2477	155
2478	154
2479	136
2480	164
2481	164
2482	160
2483	146
2484	155
2485	146
2486	153
2487	178
2488	131
2489	152
2490	140
2491	143
2492	131
2493	135
2494	133
2495	161
2496	140
2497	162
2498	153
2499	150
2500	137
2501	141
2502	136
2503	133
2504	151
2505	142
2506	138
2507	154
2508	145
2509	141
2510	148
2511	151
2512	119
2513	149
2514	125
2515	128
2516	142
2517	127
2518	137
2519	127
2520	146
2521	152
2522	171
2523	151
2524	110
2525	124
2526	130
2527	131
2528	125
2529	125
2530	132
2531	137
2532	132
2533	159
2534	103
2535	123
2536	147
2537	129
2538	144
2539	127
2540	130
2541	143
2542	130
2543	131
2544	133
2545	134
2546	128
2547	132
2548	133
2549	137
2550	144
2551	146
2552	125
2553	161
2554	121
2555	118
2556	130
2557	113
2558	148
2559	131
2560	137
2561	123
2562	142
2563	123
2564	118
2565	124
2566	134
2567	135
2568	123
2569	132
2570	119
2571	118
2572	131
2573	134
2574	102
2575	113
2576	139
2577	152
2578	117
2579	115
2580	126
2581	123
2582	129
2583	134
2584	120
2585	138
2586	101
2587	139
2588	130
2589	143
2590	118
2591	114
2592	119
2593	116
2594	125
2595	121
2596	117
2597	116
2598	98
2599	153
2600	123
2601	133
2602	122
2603	124
2604	121
2605	110
2606	117
2607	132
2608	114
2609	120
2610	107
2611	117
2612	136
2613	122
2614	131
2615	110
2616	106
2617	111
2618	126
2619	117
2620	116
2621	116
2622	126
2623	127
2624	106
2625	111
2626	105
2627	121
2628	115
2629	110
2630	102
2631	116
2632	120
2633	89
2634	115
2635	132
2636	116
2637	123
2638	109
2639	107
2640	125
2641	104
2642	108
2643	110
2644	87
2645	94
2646	124
2647	102
2648	101
2649	98
2650	98
2651	100
2652	100
2653	109
2654	111
2655	91
2656	114
2657	93
2658	98
2659	92
2660	130
2661	97
2662	120
2663	103
2664	87
2665	116
2666	117
2667	103
2668	99
2669	103
2670	103
2671	97
2672	110
2673	105
2674	103
2675	123
2676	105
2677	107
2678	116
2679	88
2680	100
2681	117
2682	90
2683	107
2684	121
2685	105
2686	109
2687	112
2688	95
2689	102
2690	99
2691	107
2692	85
2693	98
2694	113
2695	97
2696	96
2697	99
2698	105
2699	97
2700	90
2701	91
2702	102
2703	107
2704	83
2705	94
2706	92
2707	90
2708	91
2709	96
2710	96
2711	103
2712	95
2713	97
2714	96
2715	85
2716	97
2717	87
2718	88
2719	105
2720	89
2721	90
2722	80
2723	72
2724	90
2725	91
2726	102
2727	91
2728	87
2729	97
2730	87
2731	98
2732	104
2733	92
2734	75
2735	99
2736	87
2737	63
2738	92
2739	84
2740	74
2741	91
2742	73
2743	92
2744	80
2745	91
2746	102
2747	87
2748	85
2749	82
2750	94
2751	97
2752	77
2753	82
2754	85
2755	83
2756	80
2757	105
2758	71
2759	92
2760	87
2761	101
2762	88
2763	90
2764	98
2765	73
2766	84
2767	81
2768	91
2769	86
2770	72
2771	90
2772	65
2773	78
2774	76
2775	84
2776	86
2777	83
2778	77
2779	85
2780	74
2781	86
2782	81
2783	84
2784	98
2785	75
2786	78
2787	82
2788	65
2789	80
2790	76
2791	69
2792	85
2793	90
2794	55
2795	68
2796	89
2797	72
2798	82
2799	90
2800	73
2801	82
2802	79
2803	65
2804	74
2805	76
2806	88
2807	77
2808	82
2809	86
2810	83
2811	89
2812	69
2813	74
2814	91
2815	81
2816	90
2817	84
2818	68
2819	79
2820	71
2821	95
2822	76
2823	73
2824	82
2825	82
2826	83
2827	79
2828	72
2829	78
2830	69
2831	60
2832	82
2833	69
2834	71
2835	85
2836	76
2837	64
2838	60
2839	71
2840	67
2841	71
2842	75
2843	70
2844	90
2845	63
2846	72
2847	80
2848	73
2849	75
2850	81
2851	83
2852	68
2853	68
2854	65
2855	70
2856	74
2857	59
2858	75
2859	68
2860	79
2861	70
2862	52
2863	72
2864	82
2865	74
2866	74
2867	66
2868	72
2869	75
2870	61
2871	72
2872	61
2873	63
2874	59
2875	70
2876	73
2877	56
2878	77
2879	54
2880	72
2881	61
2882	58
2883	77
2884	71
2885	49
2886	79
2887	59
2888	56
2889	58
2890	68
2891	56
2892	47
2893	64
2894	71
2895	61
2896	58
2897	54
2898	66
2899	71
2900	56
2901	69
2902	73
2903	66
2904	66
2905	47
2906	50
2907	73
2908	67
2909	72
2910	58
2911	53
2912	75
2913	69
2914	57
2915	56
2916	51
2917	67
2918	64
2919	63
2920	49
2921	63
2922	71
2923	68
2924	66
2925	56
2926	50
2927	72
2928	62
2929	63
2930	58
2931	73
2932	53
2933	63
2934	62
2935	54
2936	57
2937	48
2938	67
2939	63
2940	65
2941	59
2942	67
2943	57
2944	63
2945	57
2946	54
2947	55
2948	54
2949	49
2950	61
2951	47
2952	57
2953	56
2954	49
2955	56
2956	44
2957	60
2958	54
2959	70
2960	49
2961	63
2962	56
2963	47
2964	66
2965	53
2966	65
2967	56
2968	44
2969	61
2970	57
2971	54
2972	64
2973	61
2974	34
2975	53
2976	55
2977	50
2978	59
2979	44
2980	43
2981	59
2982	60
2983	55
2984	44
2985	53
2986	56
2987	59
2988	60
2989	67
2990	59
2991	55
2992	47
2993	48
2994	52
2995	57
2996	42
2997	47
2998	42
2999	63
3000	57
3001	39
3002	46
3003	54
3004	51
3005	44
3006	54
3007	50
3008	40
3009	56
3010	53
3011	51
3012	37
3013	43
3014	47
3015	57
3016	50
3017	45
3018	46
3019	56
3020	47
3021	47
3022	52
3023	41
3024	47
3025	67
3026	37
3027	54
3028	38
3029	55
3030	47
3031	56
3032	43
3033	57
3034	47
3035	62
3036	53
3037	57
3038	62
3039	40
3040	55
3041	66
3042	46
3043	44
3044	58
3045	33
3046	49
3047	45
3048	48
3049	39
3050	47
3051	54
3052	54
3053	36
3054	47
3055	53
3056	55
3057	45
3058	42
3059	42
3060	57
3061	44
3062	38
3063	41
3064	44
3065	41
3066	42
3067	39
3068	45
3069	46
3070	41
3071	51
3072	46
3073	39
3074	40
3075	41
3076	42
3077	47
3078	62
3079	58
3080	46
3081	43
3082	38
3083	42
3084	52
3085	43
3086	33
3087	43
3088	52
3089	41
3090	46
3091	45
3092	34
3093	46
3094	44
3095	43
3096	45
3097	48
3098	41
3099	36
3100	50
3101	40
3102	34
3103	52
3104	45
3105	40
3106	35
3107	52
3108	45
3109	46
3110	40
3111	25
3112	40
3113	50
3114	29
3115	34
3116	35
3117	33
3118	39
3119	46
3120	44
3121	36
3122	47
3123	49
3124	46
3125	43
3126	40
3127	35
3128	37
3129	30
3130	50
3131	37
3132	42
3133	37
3134	34
3135	32
3136	36
3137	47
3138	31
3139	38
3140	42
3141	32
3142	42
3143	35
3144	27
3145	42
3146	40
3147	35
3148	46
3149	38
3150	37
3151	31
3152	34
3153	40
3154	42
3155	35
3156	37
3157	39
3158	34
3159	26
3160	39
3161	37
3162	39
3163	35
3164	41
3165	47
3166	45
3167	29
3168	40
3169	41
3170	33
3171	31
3172	31
3173	39
3174	28
3175	42
3176	32
3177	43
3178	29
3179	28
3180	28
3181	35
3182	33
3183	35
3184	42
3185	39
3186	28
3187	30
3188	42
3189	38
3190	43
3191	35
3192	39
3193	33
3194	46
3195	23
3196	35
3197	27
3198	27
3199	35
3200	40
3201	34
3202	33
3203	31
3204	33
3205	31
3206	35
3207	38
3208	33
3209	39
3210	40
3211	34
3212	36
3213	26
3214	33
3215	36
3216	33
3217	34
3218	36
3219	45
3220	36
3221	24
3222	26
3223	29
3224	41
3225	30
3226	36
3227	39
3228	27
3229	28
3230	35
3231	32
3232	37
3233	27
3234	40
3235	42
3236	35
3237	26
3238	51
3239	33
3240	34
3241	38
3242	36
3243	29
3244	25
3245	23
3246	34
3247	27
3248	19
3249	36
3250	25
3251	29
3252	33
3253	27
3254	23
3255	26
3256	32
3257	40
3258	39
3259	31
3260	34
3261	42
3262	28
3263	24
3264	24
3265	41
3266	19
3267	26
3268	22
3269	31
3270	30
3271	34
3272	27
3273	30
3274	34
3275	38
3276	29
3277	38
3278	31
3279	34
3280	39
3281	31
3282	36
3283	28
3284	25
3285	35
3286	31
3287	27
3288	41
3289	40
3290	26
3291	20
3292	29
3293	32
3294	30
3295	33
3296	39
3297	23
3298	30
3299	21
3300	27
3301	34
3302	23
3303	32
3304	29
3305	40
3306	27
3307	32
3308	27
3309	25
3310	46
3311	29
3312	37
3313	26
3314	31
3315	26
3316	47
3317	25
3318	30
3319	39
3320	32
3321	27
3322	32
3323	35
3324	41
3325	22
3326	31
3327	20
3328	33
3329	30
3330	25
3331	45
3332	27
3333	28
3334	29
3335	28
3336	33
3337	19
3338	26
3339	33
3340	25
3341	25
3342	24
3343	37
3344	38
3345	18
3346	24
3347	26
3348	21
3349	22
3350	30
3351	38
3352	28
3353	24
3354	23
3355	23
3356	20
3357	27
3358	33
3359	24
3360	27
3361	24
3362	33
3363	27
3364	31
3365	30
3366	23
3367	28
3368	28
3369	23
3370	29
3371	25
3372	23
3373	22
3374	17
3375	24
3376	22
3377	28
3378	31
3379	23
3380	26
3381	26
3382	25
3383	28
3384	30
3385	28
3386	26
3387	26
3388	30
3389	21
3390	25
3391	28
3392	22
3393	20
3394	20
3395	19
3396	21
3397	23
3398	25
3399	24
3400	34
3401	26
3402	25
3403	21
3404	28
3405	25
3406	23
3407	20
3408	30
3409	24
3410	16
3411	21
3412	25
3413	36
3414	27
3415	24
